timestamp,emg1,emg2,emg3,emg4,emg5,emg6,emg7,emg8
1519294750318266,23,16,10,9,10,17,12,15
1519294750318266,18,21,20,18,19,18,12,13
1519294750325285,-43,-40,-34,-27,-24,-33,-27,-32
1519294750325285,40,39,35,31,24,32,27,31
1519294750332303,-13,-14,-11,0,-6,-7,-7,-8
1519294750332303,-40,-42,-37,-54,-30,-33,-27,-28
1519294750340326,45,51,38,31,27,35,32,35
1519294750340326,-22,-25,-17,-13,-10,-16,-16,-16
1519294750356367,-14,-14,-15,-15,-31,-16,-11,-10
1519294750356367,8,12,13,15,7,5,7,6
1519294750362384,6,0,-1,1,4,3,1,3
1519294750362384,3,5,3,0,-8,0,-1,1
1519294750377424,-18,-11,-7,-44,-24,-17,-9,-13
1519294750377424,19,16,14,25,15,17,10,12
1519294750385444,2,0,5,3,-3,2,0,2
1519294750385444,-25,-25,-24,-11,-18,-22,-17,-20
1519294750409508,26,29,13,29,29,24,20,21
1519294750409508,-8,-7,1,-13,-11,-4,-5,-5
1519294750415525,-14,-16,-12,-1,-11,-13,-10,-9
1519294750415525,9,11,2,0,13,5,6,8
1519294750430586,-6,-9,-4,0,3,-4,-5,-6
1519294750430586,1,-2,-5,-2,-1,-2,-1,-1
1519294750438586,-3,-2,0,23,2,-3,0,-2
1519294750438586,1,-2,3,-23,-13,-2,-2,0
1519294750444603,9,11,3,8,14,10,6,5
1519294750444603,-11,-12,-16,-8,-7,-11,-7,-7
1519294750452656,14,13,16,8,7,12,7,9
1519294750452656,-7,-6,-11,1,-1,-5,-3,-3
1519294750462651,-12,-13,1,-7,-6,-9,-8,-9
1519294750462651,15,16,12,13,11,12,9,10
1519294750467696,-10,-11,-14,-19,-3,-6,-6,-8
1519294750467696,-6,-7,-8,0,-2,-3,-3,-5
1519294750482754,6,5,3,18,11,1,2,5
1519294750482754,-5,-7,5,-11,-10,-4,-5,-4
1519294750489723,6,8,-1,-6,3,5,2,4
1519294750489723,-4,-3,0,-2,4,-3,-1,-3
1519294750497744,3,2,0,23,0,4,1,3
1519294750497744,1,-1,-4,-14,-15,-6,1,-2
1519294750507771,-10,-12,-10,-13,-9,-10,-8,-8
1519294750507771,15,15,14,16,12,17,12,10
1519294750519803,-9,-10,-12,-12,-5,-9,-8,-7
1519294750519803,-7,-6,-1,5,-2,-8,-6,-4
1519294750527824,8,9,10,4,6,8,7,6
1519294750527824,-9,-8,-9,-2,-4,-5,-6,-7
1519294750542864,3,4,5,-2,-1,0,1,1
1519294750542864,-1,2,-1,-5,10,-1,-1,-1
1519294750549909,-3,-8,-7,-1,-5,-1,-3,-3
1519294750549909,2,2,2,0,-8,0,0,1
1519294750560914,-11,-10,1,-14,-14,-6,-6,-9
1519294750560914,15,12,9,19,24,12,9,10
1519294750564961,-9,-9,-10,4,-3,-9,-7,-6
1519294750564961,-9,-13,-12,-47,-8,-8,-8,-9
1519294750579964,12,13,10,17,8,10,9,9
1519294750579964,-12,-13,-12,-16,-14,-7,-9,-11
1519294750588022,5,8,6,4,1,4,4,3
1519294750588022,1,1,6,13,7,0,2,1
1519294750603025,-4,-5,-8,-6,-6,-3,-3,-4
1519294750603025,2,4,8,7,7,3,2,1
1519294750611046,-8,-5,-9,-7,-23,-12,-7,-5
1519294750611046,11,8,2,11,20,15,8,7
1519294750632139,-17,-26,-14,-16,-26,-17,-16,-15
1519294750632139,-22,-25,-16,-18,-23,-19,-17,-18
1519294750640133,5,14,9,21,21,6,6,5
1519294750640133,5,-1,1,6,14,10,2,3
1519294750655162,12,14,9,-4,-23,3,6,6
1519294750655162,-24,-22,-21,-39,-12,-20,-14,-17
1519294750670202,-32,-32,-27,-10,-12,-24,-19,-22
1519294750670202,45,47,35,42,32,37,31,33
1519294750677244,-21,-21,-16,-26,-19,-18,-14,-15
1519294750677244,-17,-18,-17,-11,-17,-13,-12,-15
1519294750685295,19,24,22,16,21,15,16,16
1519294750685295,-3,-9,-4,2,-8,-4,-5,-3
1519294750692260,-6,-7,-8,9,2,-1,-4,-5
1519294750692260,-9,-6,-7,-34,-13,-6,-5,-7
1519294750707352,-17,-19,-19,-14,-12,-17,-13,-15
1519294750707352,19,20,21,21,17,17,13,15
1519294750722385,-3,-2,-5,-4,7,0,-2,-3
1519294750722385,-14,-17,-10,-7,-30,-12,-11,-11
1519294750730362,14,16,13,5,9,10,10,10
1519294750730362,-9,-12,-15,-1,-10,-11,-8,-8
1519294750737383,-4,-2,0,-2,9,0,-5,-3
1519294750737383,3,6,6,6,-3,1,3,4
1519294750745402,-1,-5,-5,-5,8,-3,-1,-2
1519294750745402,2,3,4,10,0,2,1,2
1519294750760445,-6,-5,-14,-1,-3,-5,-3,-5
1519294750760445,5,5,12,-4,8,5,4,3
1519294750767463,-2,-2,-6,13,0,3,-1,-1
1519294750767463,-12,-10,-1,-5,-9,-10,-9,-9
1519294750782503,17,19,6,4,5,13,11,12
1519294750782503,-9,-10,-9,-2,0,-4,-6,-8
1519294750790558,-8,-10,-2,-6,-14,-10,-7,-7
1519294750790558,8,11,6,10,19,8,7,6
1519294750797542,-7,-11,-8,5,-16,-2,-3,-6
1519294750797542,4,5,1,13,7,-5,1,3
1519294750804598,-1,0,0,-9,9,4,-1,-2
1519294750804598,2,-3,-6,-2,0,-2,0,1
1519294750819600,3,4,15,1,2,-1,2,1
1519294750819600,-8,-8,-15,-9,4,-2,-5,-5
1519294750827625,10,11,17,-1,-5,6,8,8
1519294750827625,-10,-10,-13,-5,-1,-10,-6,-7
1519294750842662,-12,-13,-9,7,-1,-9,-7,-9
1519294750842662,12,12,8,-42,2,7,6,6
1519294750849681,-14,-12,-11,-9,-8,-5,-7,-8
1519294750849681,5,5,2,4,1,3,4,2
1519294750857751,4,6,0,4,-1,0,4,4
1519294750857751,-5,-6,-1,7,-5,0,-4,-2
1519294750864756,2,5,-1,5,7,3,3,4
1519294750864756,-6,-6,0,-6,-1,-4,-5,-7
1519294750879761,9,8,7,-15,-7,5,2,7
1519294750879761,-8,-8,-12,1,1,-5,-4,-5
1519294750887818,-11,-15,-8,-5,-12,-15,-9,-11
1519294750887818,13,14,10,13,3,10,7,10
1519294750917892,-9,-12,-10,-9,-6,-9,-8,-8
1519294750917892,0,0,3,4,4,-1,-2,-3
1519294750924922,7,7,-1,10,6,4,4,6
1519294750924922,-10,-11,-3,0,-14,-7,-6,-7
1519294750932932,10,11,14,-25,8,5,6,7
1519294750932932,-7,-2,0,-1,-11,-6,-5,-6
1519294750939919,11,7,11,8,-1,8,5,6
1519294750939919,-5,-6,-10,-3,-4,-8,-3,-5
1519294750963022,-11,-13,-9,-19,-18,-11,-10,-10
1519294750963022,-7,-5,-3,-9,-3,-7,-6,-5
1519294750970038,7,8,7,14,28,10,7,5
1519294750970038,-11,-14,-11,-6,-12,-11,-9,-8
1519294750977019,11,14,6,6,4,7,6,6
1519294750977019,0,-2,-2,-3,0,0,0,-1
1519294750985078,4,3,2,5,-4,6,1,1
1519294750985078,-2,-1,-3,7,7,0,-1,-2
1519294750992059,-12,-14,-13,-2,-9,-10,-8,-9
1519294750992059,16,17,15,-4,9,13,11,12
1519294751007098,9,9,6,14,11,2,5,5
1519294751007098,-9,-10,-9,-4,-13,-8,-8,-8
1519294751022138,2,4,1,13,9,4,5,4
1519294751022138,0,3,0,-11,-25,-1,2,1
1519294751030160,-2,-3,0,-9,18,0,-3,-2
1519294751030160,2,5,5,0,1,-2,0,2
1519294751037179,-10,-13,-12,0,-11,-11,-9,-8
1519294751037179,18,14,14,6,10,13,9,11
1519294751045200,-13,-12,-20,-13,-17,-8,-8,-8
1519294751045200,-7,-10,-10,0,-8,-5,-8,-6
1519294751060239,12,16,19,13,14,12,9,10
1519294751060239,-10,-13,-13,-4,0,-8,-8,-9
1519294751068260,3,5,10,4,-3,3,4,3
1519294751068260,2,2,0,-1,6,2,3,1
1519294751083330,-5,-6,-13,-8,-13,-2,-4,-3
1519294751083330,4,6,11,10,9,-3,2,1
1519294751089857,-9,-9,-8,-14,-8,-6,-8,-6
1519294751089857,12,10,8,8,6,9,10,9
1519294751097632,-10,-10,-2,-5,-7,-9,-6,-8
1519294751097632,-12,-12,-14,-14,-10,-10,-8,-8
1519294751105773,13,12,12,4,12,12,7,9
1519294751105773,-13,-14,-10,-10,-13,-12,-11,-11
1519294751120792,6,6,-3,0,-1,3,4,3
1519294751120792,3,7,7,2,24,9,3,2
1519294751127723,-4,-7,-6,4,-16,-8,-5,-3
1519294751127723,2,4,1,-33,-3,3,2,1
1519294751142752,-9,-7,-2,0,-4,-7,-7,-6
1519294751142752,11,10,7,19,16,12,6,7
1519294751150773,-11,-9,-5,-11,-23,-12,-8,-9
1519294751150773,-12,-11,-12,13,-6,-10,-8,-8
1519294751157792,15,13,6,-1,24,15,8,8
1519294751157792,-13,-14,-8,-21,-20,-12,-10,-12
1519294751165060,5,2,0,10,2,2,2,0
1519294751165060,8,11,18,11,10,6,5,7
1519294751179895,-8,-9,-17,-6,-13,-6,-7,-6
1519294751179895,8,10,12,20,-3,5,6,5
1519294751187874,-7,-6,-8,-44,7,-6,-4,-5
1519294751187874,10,7,7,9,12,12,5,8
1519294751202918,-6,-6,-9,-6,-12,-9,-3,-5
1519294751202918,-12,-13,-10,-6,-5,-11,-8,-8
1519294751210291,13,14,10,8,-1,12,9,9
1519294751210291,-12,-14,-1,-8,-11,-12,-10,-10
1519294751217552,-3,-4,-2,-4,-10,-6,-4,-4
1519294751217552,6,7,-3,1,6,10,6,6
1519294751233285,-12,-14,1,1,2,-8,-10,-8
1519294751233285,11,14,-1,12,5,7,7,6
1519294751240522,-1,-4,-6,-20,-3,-2,-2,-3
1519294751240522,6,5,-2,0,4,5,1,4
1519294751255561,-4,-2,-1,-9,5,2,-1,-1
1519294751255561,-12,-13,-10,-5,-23,-14,-9,-10
1519294751270349,15,16,20,19,14,15,9,12
1519294751270349,-12,-13,-8,0,-4,-10,-9,-10
1519294751285389,-9,-10,-1,-3,-5,-7,-8,-7
1519294751285389,8,7,8,14,15,7,4,6
1519294751300716,2,5,3,20,-2,-3,0,-2
1519294751300716,0,-2,-2,-9,7,6,-1,-2
1519294751307729,-2,1,-2,-2,-3,1,-2,0
1519294751307729,-11,-13,-8,-15,-22,-12,-7,-8
1519294751322772,-8,-7,-7,-1,-13,-7,-6,-5
1519294751322772,10,13,8,5,11,11,8,7
1519294751337558,0,2,-7,2,-8,-1,1,-1
1519294751337558,-3,-7,-6,-7,-6,-2,-4,-4
1519294751352721,3,5,7,6,8,3,2,1
1519294751352721,-10,-9,-9,-11,-1,-8,-6,-8
1519294751359614,14,12,9,9,1,8,9,11
1519294751359614,-12,-8,-4,-9,-5,-9,-8,-8
1519294751374654,-10,-12,-19,-7,-5,-5,-6,-8
1519294751374654,14,13,21,13,19,10,10,10
1519294751382909,-7,-9,-9,-5,-15,-8,-6,-9
1519294751382909,6,7,4,-8,10,6,6,3
1519294751397967,4,4,2,6,12,3,2,2
1519294751397967,-7,-6,-4,-5,-4,-7,-5,-4
1519294751413013,10,12,9,7,9,12,6,9
1519294751413013,-11,-11,-11,-9,-8,-11,-7,-9
1519294751420027,-13,-15,-9,-2,-6,-9,-8,-9
1519294751420027,12,14,16,-27,0,11,8,10
1519294751435070,-15,-15,-19,-5,-12,-12,-9,-12
1519294751435070,5,6,-1,-2,-11,0,0,4
1519294751443087,6,9,11,1,18,11,5,5
1519294751443087,-7,-10,-4,13,-2,-3,-6,-6
1519294751458187,7,6,2,1,1,8,4,6
1519294751458187,-8,-8,-9,4,-4,-10,-7,-6
1519294751472229,-11,-11,-11,-23,1,-5,-9,-10
1519294751472229,13,13,13,19,1,8,7,8
1519294751480251,-11,-13,-7,-13,-17,-11,-8,-9
1519294751480251,0,0,-3,6,-3,-2,-1,-1
1519294751495295,5,8,6,16,9,7,5,4
1519294751495295,-8,-9,-4,-11,-5,-8,-7,-6
1519294751502315,11,11,11,20,15,7,8,7
1519294751502315,-5,-5,-10,-31,-1,-3,-1,-5
1519294751517346,-13,-11,-11,-5,-8,-8,-8,-10
1519294751517346,16,15,16,25,16,8,8,11
1519294751532386,-11,-12,-9,-7,-14,-10,-8,-8
1519294751532386,-6,-5,-12,-10,-1,-5,-3,-3
1519294751540407,7,10,20,6,17,8,6,7
1519294751540407,-11,-13,-7,6,-24,-10,-8,-8
1519294751555447,9,10,3,-17,16,8,8,7
1519294751555447,-1,-1,3,8,-1,-5,-1,-2
1519294751562467,4,1,-4,-2,4,8,2,0
1519294751562467,-1,0,-4,6,-2,-2,1,-1
1519294751577507,-14,-15,-18,-19,-18,-14,-10,-11
1519294751577507,-6,-8,-4,-3,-4,-3,-2,-5
1519294751592784,9,9,7,19,9,7,7,7
1519294751592784,-9,-13,-16,-18,-7,-7,-7,-9
1519294751600633,5,6,9,12,19,3,1,3
1519294751600633,-1,0,-3,-4,-20,-5,1,-1
1519294751615650,0,-4,-3,-3,2,0,-5,-2
1519294751615650,0,2,2,9,4,2,2,0
1519294751622670,-11,-12,-17,-11,-15,-13,-10,-9
1519294751622670,16,19,18,1,26,18,12,14
1519294751638026,-13,-11,-6,-12,-25,-16,-9,-9
1519294751638026,-8,-9,-6,-1,-9,-6,-7,-7
1519294751644726,14,14,6,12,14,11,11,9
1519294751644726,-9,-12,-9,-3,2,-2,-7,-7
1519294751660021,6,6,5,4,13,4,4,4
1519294751660021,3,2,1,5,-5,0,3,2
1519294751675843,-6,-3,7,1,2,-4,-3,-4
1519294751675843,13,12,5,2,-3,9,6,8
1519294751683081,-12,-11,-10,-9,7,-10,-7,-10
1519294751683081,-12,-14,-11,4,-13,-10,-10,-8
1519294751697867,13,13,8,-10,9,6,7,8
1519294751697867,-11,-15,-11,-1,-2,-11,-8,-9
1519294751705141,5,6,3,0,-3,8,5,6
1519294751705141,5,7,4,-3,15,4,4,3
1519294751720928,-7,-9,-8,5,-17,-10,-5,-5
1519294751720928,1,5,6,3,4,4,2,3
1519294751735237,-9,-10,-9,-4,-8,-5,-8,-7
1519294751735237,-11,-12,-12,-10,-7,-9,-9,-9
1519294751743029,13,14,11,18,10,10,10,9
1519294751743029,-13,-14,-14,-4,-20,-11,-9,-9
1519294751757073,4,4,8,4,2,6,2,1
1519294751757073,5,8,9,-8,-1,-2,3,4
1519294751765045,-8,-12,-10,-7,-9,-7,-7,-7
1519294751765045,7,11,12,12,3,6,5,6
1519294751780085,-4,-7,-12,-12,-8,-6,-4,-4
1519294751780085,10,6,-1,10,14,12,5,8
1519294751795125,13,14,7,12,17,14,9,8
1519294751795125,-13,-12,-9,-11,-1,-7,-8,-7
1519294751802311,-4,-3,-6,-9,-8,-5,-3,-4
1519294751802311,6,8,11,6,1,6,5,5
1519294751825205,-11,-10,-11,-9,-11,-10,-9,-8
1519294751825205,12,13,10,7,10,8,6,8
1519294751832224,-4,-4,-3,-3,-11,-3,-5,-3
1519294751832224,8,3,-1,15,6,6,2,3
1519294751848422,-5,-3,2,0,-8,-6,-2,-3
1519294751848422,-11,-13,-14,-65,-22,-13,-10,-11
1519294751862565,-10,-14,-17,-20,-7,-8,-7,-9
1519294751862565,8,11,16,1,-4,3,5,5
1519294751877344,-2,-2,-4,-1,1,0,-1,0
1519294751877344,-1,-2,0,16,-2,1,-2,-2
1519294751885628,1,3,-3,-9,0,-1,0,2
1519294751885628,-13,-13,-13,-5,-8,-9,-6,-10
1519294751907679,18,18,15,16,13,17,13,14
1519294751907679,-12,-13,-9,13,-3,-9,-8,-11
1519294751922715,-10,-13,-4,-18,-5,-9,-8,-10
1519294751922715,5,8,4,10,2,7,6,4
1519294751930114,0,-1,-2,-3,-6,-1,0,0
1519294751930114,-6,-9,-4,-6,-4,-7,-5,-4
1519294751945139,3,4,2,16,9,2,2,2
1519294751945139,-9,-11,-11,-6,-7,-6,-6,-7
1519294751953177,16,17,14,6,9,8,9,10
1519294751953177,-11,-10,-12,-5,-9,-10,-7,-8
1519294751960191,-8,-9,-5,-16,-16,-9,-8,-9
1519294751960191,13,14,14,18,16,9,11,10
1519294751975011,1,3,-2,4,-8,1,1,1
1519294751975011,-5,-6,0,6,6,-1,-2,-3
1519294751983255,2,6,5,-12,2,0,3,1
1519294751983255,-6,-8,-4,1,-4,-1,-4,-5
1519294751997032,12,10,6,10,8,7,5,8
1519294751997032,-10,-8,-3,-22,-7,-7,-8,-7
1519294752005296,-12,-14,-11,-1,-13,-8,-8,-8
1519294752005296,13,15,12,6,13,8,10,9
1519294752020632,-14,-13,-8,-9,-17,-13,-8,-10
1519294752020632,3,2,-6,14,12,4,2,4
1519294752035419,4,7,4,6,13,6,5,3
1519294752035419,-8,-8,2,23,-5,-5,-5,-7
1519294752042745,9,8,4,-13,-11,3,4,7
1519294752042745,-8,-9,-10,0,6,-5,-5,-4
1519294752065671,-12,-13,-4,-15,-14,-11,-8,-8
1519294752065671,11,11,4,-6,6,10,7,7
1519294752072724,-12,-15,-6,10,-6,-8,-9,-8
1519294752072724,-2,-2,-2,-3,3,0,-3,-1
1519294752087942,8,9,5,19,9,5,5,6
1519294752087942,-8,-11,-9,-39,-14,-7,-8,-8
1519294752103151,9,8,8,16,11,9,3,7
1519294752103151,-6,-2,-1,5,-1,-3,-1,-3
1519294752118228,-10,-9,-11,-9,-4,-8,-9,-8
1519294752118228,-5,-8,-17,-20,-2,-6,-4,-2
1519294752125110,7,6,-12,-24,10,10,7,7
1519294752125110,-9,-11,23,-32,-1,-6,-6,-8
1519294752140410,9,9,8,25,14,9,8,6
1519294752140410,0,3,-6,4,-16,-2,-2,-1
1519294752162475,-12,-14,-12,-23,-10,-11,-8,-11
1519294752162475,16,16,17,17,12,11,10,11
1519294752170499,-14,-15,-12,-22,-8,-10,-9,-11
1519294752170499,-4,-4,-7,22,-16,-9,-5,-5
1519294752185771,9,11,8,1,4,7,6,8
1519294752185771,-12,-16,-14,-3,-11,-8,-7,-9
1519294752192580,4,8,16,20,6,5,3,3
1519294752192580,2,2,0,8,0,-3,0,2
1519294752207595,-4,-4,6,11,-1,-5,-3,-3
1519294752207595,13,12,6,25,5,10,7,8
1519294752222722,11,13,15,14,11,7,7,8
1519294752222722,-11,-13,-15,9,-10,-9,-8,-9
1519294752245801,4,5,4,7,-5,1,2,3
1519294752245801,3,4,5,4,20,3,2,2
1519294752252749,-6,-9,-9,-5,-10,3,-3,-4
1519294752252749,4,5,3,-2,1,-7,-2,1
1519294752267758,-5,-7,-3,-30,-15,-9,-5,-5
1519294752267758,10,9,5,-4,0,8,7,7
1519294752274877,-10,-9,-17,4,-3,-4,-4,-7
1519294752274877,-12,-15,-6,-9,-9,-9,-8,-8
1519294752289883,7,6,-2,-5,8,3,5,3
1519294752289883,5,7,9,-3,0,2,3,4
1519294752298236,-5,-8,-2,0,-8,-6,-5,-5
1519294752298236,3,1,1,2,-1,3,3,1
1519294752305243,-8,-6,2,9,10,-8,-6,-5
1519294752305243,10,7,3,-9,3,8,6,6
1519294752320316,-9,-9,-11,4,3,-2,-5,-6
1519294752320316,-12,-11,-12,-9,-17,-9,-8,-9
1519294752327377,12,13,16,15,11,13,9,10
1519294752327377,-13,-13,-14,-6,-16,-11,-6,-8
1519294752335653,4,2,-2,10,3,-3,0,0
1519294752335653,8,8,9,-3,22,8,4,4
1519294752342656,-8,-10,-4,-10,-16,-14,-11,-9
1519294752342656,7,10,5,-4,-3,10,6,5
1519294752357703,-6,-3,-4,3,-11,-8,-3,-2
1519294752357703,7,4,3,12,-2,16,8,6
1519294752372548,-5,-4,-3,-7,18,0,-3,-3
1519294752372548,-12,-11,-11,-4,-5,-10,-6,-8
1519294752387891,14,14,16,9,7,9,8,8
1519294752387891,-11,-10,-14,3,-5,-11,-6,-6
1519294752394606,-4,-7,-3,5,-11,-4,-2,-5
1519294752394606,7,9,6,-2,4,8,7,6
1519294752402773,-9,-12,-9,3,-11,-11,-6,-8
1519294752402773,8,11,5,15,16,9,5,4
1519294752409900,-2,-1,1,-37,-17,-7,-2,-1
1519294752409900,6,4,5,15,9,6,3,5
1519294752425393,14,16,13,21,1,9,10,13
1519294752425393,-12,-14,-11,-5,2,-6,-8,-11
1519294752440410,-5,-6,-4,-11,-5,-3,-4,-5
1519294752440410,8,9,5,6,32,2,5,5
1519294752448373,-10,-12,-10,-12,-18,-10,-8,-9
1519294752448373,7,8,7,-4,1,5,5,4
1519294752455143,0,3,-1,4,-1,3,1,-1
1519294752455143,1,-2,4,6,-15,-7,-2,0
1519294752463364,-1,2,-1,11,4,-2,0,-1
1519294752463364,-12,-12,-24,-5,-4,-10,-9,-8
1519294752477199,14,14,11,-25,11,13,11,9
1519294752477199,-12,-9,4,-11,-7,-4,-9,-9
1519294752485700,-7,-8,-7,-5,-11,-8,-6,-4
1519294752485700,7,9,7,25,8,8,8,6
1519294752507917,-9,-11,-14,-1,-7,-7,-6,-6
1519294752507917,3,2,-3,-8,-7,0,2,3
1519294752514936,0,0,1,4,-8,6,3,0
1519294752514936,-4,-6,-1,-1,-5,-4,-4,-5
1519294752523279,2,2,1,4,8,1,1,2
1519294752523279,-9,-9,-7,-11,-9,-9,-8,-6
1519294752530292,14,14,12,6,13,8,5,8
1519294752530292,-9,-9,-6,16,-3,-4,-5,-7
1519294752545061,-10,-8,-6,-14,-6,-7,-8,-7
1519294752545061,6,6,7,3,7,4,3,4
1519294752560052,1,4,2,11,7,9,2,1
1519294752560052,-5,-9,-8,1,-16,-10,-6,-6
1519294752568321,3,2,-2,3,13,4,2,2
1519294752568321,-7,-8,-4,-15,-8,-8,-4,-5
1519294752575102,11,8,9,21,19,10,7,7
1519294752575102,-10,-9,-10,-14,-5,-8,-8,-7
1519294752583151,-13,-14,-11,-7,-7,-2,-8,-10
1519294752583151,11,15,13,2,6,9,7,8
1519294752598307,-13,-14,-12,19,-7,-11,-9,-8
1519294752598307,4,5,5,-16,7,10,5,4
1519294752605263,6,8,2,8,-15,-6,4,3
1519294752605263,-4,-8,2,-13,6,-10,-7,-4
1519294752627231,4,4,7,24,1,6,5,2
1519294752627231,-5,-6,-6,-15,-7,-5,-4,-5
1519294752635328,7,6,2,5,19,18,8,6
1519294752635328,-13,-9,-7,-9,-26,-11,-7,-9
1519294752642751,-9,-10,-17,-20,-6,-8,-8,-7
1519294752642751,12,14,16,36,14,11,7,8
1519294752649881,-10,-12,-8,-7,-17,-10,-9,-6
1519294752649881,0,0,-5,-12,-6,-1,-3,-2
1519294752664981,6,8,4,0,12,2,4,4
1519294752664981,-8,-14,-8,-16,-11,-9,-8,-9
1519294752680283,9,7,9,10,-1,5,3,6
1519294752680283,-4,-2,-11,-29,0,-1,1,-1
1519294752688252,-11,-11,5,-10,-9,-10,-7,-9
1519294752688252,13,11,9,6,11,14,10,11
1519294752695312,-10,-10,-11,-14,-8,-13,-10,-10
1519294752695312,-4,-7,-2,9,-1,-4,-3,-5
1519294752703280,6,10,9,4,-2,1,4,5
1519294752703280,-12,-14,-18,-24,-2,-8,-6,-9
1519294752717748,8,11,10,17,14,3,8,8
1519294752717748,-2,-1,-1,-8,1,0,0,0
1519294752725727,3,1,6,-7,-12,-1,1,1
1519294752725727,-2,1,3,4,7,-2,-2,-1
1519294752740498,-11,-13,-13,-16,-7,-8,-9,-9
1519294752740498,15,16,15,24,11,12,8,11
1519294752747516,-11,-14,-24,-26,-1,-10,-8,-9
1519294752747516,-3,-6,9,-26,-11,-5,-5,-4
1519294752754532,8,8,6,3,-6,2,4,4
1519294752754532,-10,-14,-16,-7,-11,-8,-7,-7
1519294752762552,4,7,5,13,7,2,2,2
1519294752762552,0,4,-5,7,1,1,1,0
1519294752777594,-3,-7,5,-5,-7,-2,-2,-3
1519294752777594,-2,3,-1,19,-10,-2,1,0
1519294752785758,-9,-7,-9,-5,-13,-9,-8,-6
1519294752785758,15,15,7,-2,6,13,10,12
1519294752807676,-10,-11,-11,-9,5,-2,-6,-6
1519294752807676,-7,-7,-3,-3,-2,-10,-5,-4
1519294752815807,11,11,6,11,9,16,10,6
1519294752815807,-9,-12,-9,3,-5,-13,-9,-9
1519294752823370,4,6,1,-8,1,4,2,3
1519294752823370,2,2,5,11,1,3,2,3
1519294752830379,-5,-6,5,-27,-1,-4,-4,-4
1519294752830379,4,4,-3,7,3,5,2,3
1519294752845073,-9,-9,-7,-4,-10,-6,-7,-6
1519294752845073,11,11,7,4,13,10,6,9
1519294752860420,12,14,3,9,12,12,9,9
1519294752860420,-13,-13,-3,-17,-14,-11,-11,-11
1519294752868448,6,7,4,7,13,5,3,4
1519294752868448,3,5,5,3,8,8,4,2
1519294752875496,-7,-9,-3,0,0,-4,-6,-4
1519294752875496,2,1,-5,-7,-1,-3,2,0
1519294752882716,-5,-5,-3,0,1,-4,-3,-5
1519294752882716,9,8,7,8,1,7,6,7
1519294752905089,-8,-7,-10,-6,-8,-6,-7,-6
1519294752905089,-11,-12,-13,-13,-15,-9,-8,-9
1519294752913144,11,11,4,8,14,8,8,7
1519294752913144,-11,-10,6,1,-8,-8,-7,-9
1519294752927898,3,2,-3,-7,-5,1,1,1
1519294752927898,9,11,5,15,13,11,7,6
1519294752935918,-7,-9,-6,-7,-11,-7,-7,-4
1519294752935918,5,7,1,-3,-6,2,4,3
1519294752943249,-7,-6,2,-1,8,-5,-3,-5
1519294752943249,9,5,3,6,5,7,4,6
1519294752958216,11,13,12,-11,-7,7,8,9
1519294752958216,-10,-12,-13,-2,-6,-5,-5,-8
1519294752965302,-1,-6,-9,-6,-5,-2,-1,-2
1519294752965302,5,7,9,10,7,5,1,3
1519294752987477,-9,-12,-10,-9,-12,-7,-8,-7
1519294752987477,9,11,10,6,7,4,4,8
1519294752995498,-4,-4,-6,-1,-2,-4,-1,-2
1519294752995498,5,3,-5,1,-4,6,2,4
1519294753002517,-3,-1,13,-15,-7,-4,-1,-2
1519294753002517,-11,-12,-8,-8,-5,-12,-8,-10
1519294753010538,15,14,8,7,7,13,10,11
1519294753010538,-11,-14,-12,-9,-7,-9,-7,-7
1519294753025763,-4,-7,-7,-3,18,-4,-3,-4
1519294753025763,8,7,8,16,0,2,4,6
1519294753032598,-9,-11,-11,-4,-4,-7,-9,-7
1519294753032598,8,9,12,10,4,5,5,5
1519294753040803,-2,0,0,-6,-9,1,0,0
1519294753040803,2,0,-5,-14,-5,-2,0,0
1519294753047656,0,-1,2,7,11,5,2,-2
1519294753047656,-11,-11,-9,-10,-12,-13,-8,-8
1519294753055821,17,19,18,0,9,10,9,11
1519294753055821,-11,-12,-12,-1,-8,-7,-9,-7
1519294753062944,-8,-7,-2,-12,-13,-8,-5,-4
1519294753062944,10,9,-1,7,18,15,8,9
1519294753078025,-9,-9,4,11,-24,-14,-7,-9
1519294753078025,5,5,5,5,7,5,6,3
1519294753085252,0,0,-3,-18,-4,-2,0,0
1519294753085252,-5,-9,-7,-3,-7,-5,-4,-5
1519294753100143,5,5,-2,12,26,3,4,2
1519294753100143,-7,-7,-7,-15,-1,-1,-5,-6
1519294753107350,13,13,12,17,3,12,9,9
1519294753107350,-11,-8,0,14,-18,-16,-6,-7
1519294753115256,-10,-11,-14,-7,-12,-6,-7,-7
1519294753115256,10,12,17,19,9,9,8,8
1519294753122140,-10,-13,-16,-28,-6,-7,-8,-8
1519294753122140,6,6,5,-8,3,4,3,5
1519294753137213,0,-1,-2,13,11,2,2,1
1519294753137213,-4,-6,2,-7,-10,-2,-4,-4
1519294753145234,3,7,5,15,4,1,2,3
1519294753145234,-7,-9,-6,-15,-4,-5,-5,-7
1519294753160280,11,11,2,8,4,9,6,8
1519294753160280,-12,-11,-6,-8,-6,-9,-4,-6
1519294753167588,-12,-12,-14,2,-12,-9,-7,-8
1519294753167588,13,12,10,-4,12,9,8,8
1519294753175312,-10,-13,-11,-2,-9,-7,-8,-8
1519294753175312,5,6,0,-3,6,6,3,3
1519294753182575,6,7,11,15,-16,2,3,5
1519294753182575,-6,-11,-11,-2,15,1,-5,-6
1519294753197420,5,6,4,-19,-7,2,3,4
1519294753197420,-7,-6,-8,-7,-18,-13,-5,-5
1519294753205439,8,8,8,15,2,7,4,6
1519294753205439,-8,-5,-15,-27,-4,-8,-7,-6
1519294753220575,-11,-12,-2,-3,-9,-10,-9,-9
1519294753220575,11,12,11,27,16,12,8,7
1519294753227494,-10,-16,-13,-24,-4,-12,-9,-10
1519294753227494,2,2,3,4,-6,-3,0,-2
1519294753235512,4,8,5,10,8,5,4,3
1519294753235512,-10,-11,-19,-1,-16,-8,-8,-8
1519294753242746,9,10,13,8,23,4,6,7
1519294753242746,-5,-4,3,-4,-13,-4,-2,-4
1519294753257799,7,5,4,5,-3,7,4,4
1519294753257799,-6,-4,-9,-9,20,-4,-3,-4
1519294753265554,-13,-12,-13,-13,-11,-7,-8,-8
1519294753265554,13,15,14,24,5,10,9,10
1519294753280849,-14,-14,-14,-38,-7,-10,-6,-9
1519294753280849,-5,-6,2,-14,-17,-4,-5,-4
1519294753287610,5,9,6,13,11,9,5,7
1519294753287610,-8,-10,-3,-3,0,-7,-9,-8
1519294753295723,12,11,6,19,8,2,6,7
1519294753295723,-2,1,-3,-5,0,3,0,-2
1519294753303057,3,0,-1,8,-1,-2,-1,-1
1519294753303057,-3,-2,-6,-3,1,2,-1,-3
1519294753318083,-10,-11,-6,-2,-6,-8,-8,-8
1519294753318083,15,15,12,11,7,11,10,12
1519294753325109,-13,-12,-9,-12,-9,-8,-10,-10
1519294753325109,-6,-7,-7,-12,-16,-11,-6,-4
1519294753340147,7,10,6,18,0,9,6,6
1519294753340147,-9,-10,-9,-7,8,-11,-8,-6
1519294753347167,7,6,12,1,-4,5,1,3
1519294753347167,-1,0,1,7,5,-1,1,-1
1519294753355625,1,-1,-3,-11,6,2,-1,1
1519294753355625,1,2,1,0,-12,-1,0,1
1519294753363441,-10,-10,-16,3,-6,-14,-7,-9
1519294753363441,17,15,20,7,18,11,9,12
1519294753377244,-12,-11,-12,2,-13,-8,-7,-10
1519294753377244,-7,-7,-5,-10,-5,-5,-6,-6
1519294753385266,10,14,12,13,15,10,8,7
1519294753385266,-7,-11,-13,-1,-8,-4,-5,-7
1519294753400331,5,4,10,-5,8,9,3,2
1519294753400331,1,3,4,1,0,-3,0,0
1519294753407571,-3,-6,-5,-15,-6,-3,-4,-3
1519294753407571,2,5,1,2,3,3,4,4
1519294753415672,-8,-7,-10,19,-5,-7,-7,-6
1519294753415672,10,9,3,-39,18,9,7,7
1519294753422953,-8,-9,-4,-10,-10,-8,-7,-6
1519294753422953,-11,-14,-16,-11,-13,-10,-9,-9
1519294753438110,14,11,9,17,6,8,8,8
1519294753438110,-9,-12,-2,-2,-10,-8,-8,-7
1519294753445012,6,7,-2,3,6,7,5,6
1519294753445012,2,3,7,4,5,1,2,2
1519294753460064,-3,-5,-4,-12,-6,-4,-2,-1
1519294753460064,1,3,0,7,-6,0,2,2
1519294753468284,-7,-7,-2,-12,4,-5,-5,-5
1519294753468284,11,11,12,15,-5,7,5,7
1519294753475348,-10,-9,-10,-9,-8,-10,-7,-8
1519294753475348,-12,-13,-9,-7,-9,-8,-8,-7
1519294753482133,13,11,12,21,14,14,9,9
1519294753482133,-13,-13,-12,-45,-18,-13,-9,-9
1519294753498296,4,4,3,6,2,2,0,1
1519294753498296,6,6,-4,-14,0,6,5,3
1519294753505176,-5,-6,0,-6,-4,-8,-5,-7
1519294753505176,5,10,11,-1,-3,5,6,5
1519294753520466,-8,-8,-8,3,5,-8,-5,-4
1519294753520466,9,5,7,21,5,7,4,6
1519294753527239,-7,-6,-12,-5,-9,-5,-3,-4
1519294753527239,-11,-9,-10,-15,2,-5,-6,-8
1519294753535256,12,13,14,25,1,7,6,10
1519294753535256,-9,-12,-9,2,-7,-6,-7,-7
1519294753543341,-4,-6,-3,7,0,-6,-4,-4
1519294753543341,9,8,4,-14,8,9,6,5
1519294753557314,-12,-14,1,-1,-11,-11,-9,-11
1519294753557314,10,11,6,-7,2,11,7,7
1519294753565338,-3,-3,-7,3,3,-5,-2,-2
1519294753565338,4,5,14,11,2,3,2,2
1519294753580375,-4,-1,-11,-9,-1,-1,-2,-2
1519294753580375,-12,-11,-2,3,-7,-9,-8,-8
1519294753587394,14,16,11,5,5,9,10,11
1519294753587394,-11,-15,-16,2,-13,-12,-9,-8
1519294753595414,-6,-5,-9,-12,-5,-2,-5,-5
1519294753595414,7,8,9,15,17,11,7,6
1519294753602432,-12,-12,-14,-19,-28,-14,-8,-8
1519294753602432,8,11,7,17,14,8,4,4
1519294753617732,0,0,3,7,0,1,2,0
1519294753617732,1,-2,0,14,0,2,-1,-1
1519294753625761,0,1,0,-41,2,3,0,-1
1519294753625761,-9,-12,-12,-1,-4,-6,-7,-7
1519294753640168,15,15,10,0,-2,14,12,11
1519294753640168,-12,-12,-17,7,14,-9,-10,-10
1519294753648279,-8,-5,10,13,0,-10,-7,-5
1519294753648279,9,11,9,5,3,10,7,8
1519294753655169,-10,-12,-10,-3,-15,-3,-7,-9
1519294753655169,4,5,5,9,15,1,3,4
1519294753663299,1,-1,-4,-3,-8,1,0,0
1519294753663299,-6,-7,-14,-10,-3,-3,-4,-4
1519294753677538,1,7,21,-3,-8,-5,1,3
1519294753677538,-8,-7,-6,-3,5,-7,-6,-6
1519294753685889,12,13,8,23,-8,9,7,9
1519294753685889,-12,-12,-13,-18,-7,-9,-7,-7
1519294753707650,-7,-10,-5,-5,7,-6,-6,-4
1519294753707650,10,12,8,-4,-5,10,7,9
1519294753715771,-9,-11,-11,-1,2,-3,-7,-6
1519294753715771,6,6,9,13,14,0,4,3
1519294753722658,1,-1,-6,-4,22,2,1,2
1519294753722658,-2,-7,0,-20,-40,-5,-2,-4
1519294753730771,4,7,1,3,5,8,5,3
1519294753730771,-7,-7,-7,1,-6,-8,-7,-5
1519294753745794,10,11,15,11,43,7,3,5
1519294753745794,-8,-9,-5,1,3,-5,-7,-7
1519294753759922,-13,-14,-11,22,-18,-12,-9,-10
1519294753759922,5,5,4,-28,-17,4,1,2
1519294753775809,3,7,-2,-15,-19,0,5,4
1519294753775809,-11,-10,-13,-1,-2,-5,-6,-6
1519294753789836,11,9,14,7,13,23,8,8
1519294753789836,-9,-10,-3,7,-16,-33,-15,-11
1519294753797858,-8,-11,-11,-20,-34,-13,-8,-9
1519294753797858,14,15,14,30,20,11,10,11
1519294753812898,-12,-14,-18,-20,-9,-7,-8,-8
1519294753812898,0,1,13,38,3,7,0,1
1519294753819916,5,7,-2,-1,7,7,6,5
1519294753819916,-6,-8,-2,-8,-4,-11,-8,-6
1519294753834987,9,8,4,1,4,6,6,6
1519294753834987,-7,-7,-7,4,1,-3,-3,-4
1519294753849996,-12,-10,-1,-12,-7,-10,-7,-10
1519294753849996,13,14,8,13,-6,13,9,12
1519294753857295,-12,-13,-9,-12,8,-8,-9,-8
1519294753857295,-6,-5,-6,-8,-27,-11,-5,-3
1519294753873340,7,10,10,11,24,6,4,5
1519294753873340,-10,-16,-19,-20,-6,-3,-7,-8
1519294753880705,10,12,10,10,11,14,8,5
1519294753880705,0,0,-2,9,-3,-7,-3,-3
1519294753895697,-11,-12,-4,-20,-5,-6,-7,-7
1519294753895697,15,15,13,18,9,9,11,11
1519294753918460,-13,-15,-11,-15,-11,-12,-9,-11
1519294753918460,-3,-3,-5,11,2,-6,-2,-3
1519294753925808,7,9,2,-30,0,9,7,6
1519294753925808,-9,-12,-7,-8,-1,-8,-9,-8
1519294753940777,4,7,1,9,3,3,3,2
1519294753940777,1,0,0,8,-13,-2,2,0
1519294753947719,0,-4,-4,-3,8,-1,-3,0
1519294753947719,2,4,-1,-17,-5,-1,1,1
1519294753962880,-11,-11,-8,-1,-18,-14,-11,-10
1519294753962880,-9,-8,-6,-1,4,-4,-5,-6
1519294753977920,3,3,-4,8,-1,5,5,3
1519294753977920,1,1,11,-1,3,2,0,0
1519294753992963,-2,-4,-1,5,-1,-3,-3,-1
1519294753992963,0,2,5,1,-10,0,0,0
1519294754007308,-7,-6,-17,-8,-2,-4,-3,-4
1519294754007308,10,12,5,-1,3,8,6,8
1519294754022533,11,11,9,7,1,6,6,8
1519294754022533,-11,-11,-9,-4,-2,-7,-7,-10
1519294754045438,3,7,5,1,0,2,3,4
1519294754045438,4,5,0,4,2,1,2,2
1519294754052455,-6,-11,-9,7,0,-6,-5,-4
1519294754052455,3,4,7,1,-13,1,3,2
1519294754067538,-9,-9,2,26,-3,-1,-6,-7
1519294754067538,-9,-13,-12,-42,-14,-14,-9,-7
1519294754082839,3,3,7,24,3,0,2,3
1519294754082839,6,11,17,5,8,9,7,7
1519294754098258,-7,-5,-8,-12,-3,-7,-3,-5
1519294754098258,9,5,10,19,7,8,6,6
1519294754112919,-8,-7,-10,-14,-6,-4,-6,-4
1519294754112919,-10,-12,-7,-6,-9,-5,-8,-9
1519294754120023,11,11,9,-1,15,1,6,8
1519294754120023,-11,-11,-12,-1,-5,-10,-7,-7
1519294754135085,-7,-10,1,-32,-19,-7,-6,-8
1519294754135085,6,8,-2,10,14,5,5,6
1519294754150067,-7,-6,-4,4,-6,-9,-2,-3
1519294754150067,6,5,8,15,15,11,4,5
1519294754158301,-3,-2,-6,-12,-11,-4,-1,-2
1519294754158301,-12,-9,-8,5,2,-6,-7,-9
1519294754173284,13,12,10,19,4,13,11,11
1519294754173284,-13,-14,-16,-61,-13,-17,-10,-10
1519294754180359,-4,-5,-2,1,-9,-1,-2,-2
1519294754180359,5,4,3,8,13,7,4,5
1519294754195162,-4,0,12,25,0,-2,-1,-2
1519294754195162,3,1,-10,5,-2,1,-1,1
1519294754210202,-3,3,1,-28,-5,-1,-1,-2
1519294754210202,-9,-9,-15,-5,8,-2,-7,-7
1519294754218254,14,13,4,1,-7,8,7,11
1519294754218254,-11,-13,3,10,-7,-10,-8,-9
1519294754232534,-3,-5,-1,4,-6,-3,-4,-2
1519294754232534,9,10,7,0,21,6,5,5
1519294754240559,-8,-11,-10,-12,-3,-6,-6,-5
1519294754240559,2,3,-11,-1,9,6,2,1
1519294754255746,1,4,-3,24,13,6,3,2
1519294754255746,-9,-10,-10,-64,-12,-11,-7,-8
1519294754269664,15,15,9,14,9,13,9,10
1519294754269664,-13,-11,-8,7,-3,-7,-9,-9
1519294754284905,-6,-5,-2,-10,-14,-7,-5,-5
1519294754284905,13,14,18,32,18,10,8,10
1519294754299713,-7,-9,-9,-8,-8,-9,-7,-6
1519294754299713,3,4,3,2,1,6,5,5
1519294754307735,0,3,-1,-5,6,-4,1,0
1519294754307735,-3,-6,-3,-17,-12,-6,-3,-3
1519294754322837,10,10,5,-55,18,14,7,7
1519294754322837,-9,-6,-5,2,-53,-22,-7,-6
1519294754338071,-11,-13,0,9,-4,-9,-9,-10
1519294754338071,6,4,4,13,0,7,3,3
1519294754352880,5,3,-2,3,25,4,3,3
1519294754352880,-4,-6,3,-9,-3,-4,-4,-3
1519294754359942,2,1,0,6,-15,-1,2,1
1519294754359942,-7,-8,-17,-4,7,-2,-5,-6
1519294754374942,-12,-12,-17,-5,-5,-14,-7,-8
1519294754374942,13,14,11,18,8,12,10,10
1519294754389979,-13,-16,-14,-12,-11,-10,-8,-9
1519294754389979,5,2,5,-1,7,5,1,0
1519294754398012,7,8,3,0,-23,-2,3,6
1519294754398012,-9,-9,-13,-7,12,-7,-6,-7
1519294754413044,7,10,3,3,5,7,6,5
1519294754413044,-7,-5,-1,10,-3,-6,-4,-5
1519294754420329,9,8,4,2,-1,12,6,7
1519294754420329,-5,-6,-3,-26,21,-9,-3,-4
1519294754435563,-9,-10,-3,6,-7,-6,-9,-8
1519294754435563,-2,-3,0,-12,-6,-5,-2,-4
1519294754450346,5,5,4,-4,21,2,4,3
1519294754450346,-10,-13,-12,-6,-16,-13,-7,-8
1519294754457510,9,10,5,3,15,7,8,7
1519294754457510,-5,-4,6,6,-8,-3,-3,0
1519294754473097,5,2,6,5,6,8,2,3
1519294754473097,-4,-7,-7,-12,-16,-3,-4,-5
1519294754479995,-11,-10,-3,4,-6,-11,-7,-8
1519294754479995,15,15,9,6,32,16,11,10
1519294754494902,6,9,6,2,17,5,6,5
1519294754494902,-10,-12,-13,-4,-20,-7,-7,-5
1519294754510175,7,9,7,-3,6,3,4,4
1519294754510175,1,3,-3,-4,-3,3,1,-1
1519294754518184,-1,-3,1,8,27,-3,-4,0
1519294754518184,0,-1,-5,-13,-13,0,1,-1
1519294754532342,-13,-11,-2,-5,4,-7,-7,-8
1519294754532342,16,16,10,8,-1,8,10,12
1519294754540242,-13,-13,-12,-10,-2,-9,-10,-9
1519294754540242,-7,-6,-4,13,-7,-14,-8,-5
1519294754562539,4,6,-4,-2,-1,4,2,0
1519294754562539,-1,-1,4,12,-5,2,0,-1
1519294754577341,-3,-9,-8,-5,1,-3,-7,-5
1519294754577341,0,4,4,4,4,0,2,3
1519294754585667,-9,-9,-7,-5,-6,-8,-6,-8
1519294754585667,14,13,5,7,10,15,10,10
1519294754600454,-9,-7,-2,-2,-1,-13,-6,-7
1519294754600454,-7,-12,-12,-25,-18,-7,-7,-6
1519294754607475,11,11,12,13,8,13,7,9
1519294754607475,-9,-11,-9,-8,-4,0,-5,-6
1519294754615495,-4,-7,-10,-5,-2,-3,-2,-2
1519294754615495,3,5,10,4,-1,0,1,2
1519294754630483,-5,-6,-6,-2,-2,-3,-3,-6
1519294754630483,11,9,7,7,-3,6,6,8
1519294754637535,-6,-8,-9,-6,-5,-7,-5,-6
1519294754637535,-14,-12,-14,-2,-5,-7,-10,-11
1519294754653101,12,13,9,-4,9,12,9,9
1519294754653101,-12,-13,-15,-10,-10,-10,-10,-10
1519294754660012,6,7,15,4,0,2,4,3
1519294754660012,4,5,3,-1,10,0,4,3
1519294754675162,-6,-7,-8,-3,2,-3,-4,-7
1519294754675162,9,10,11,-6,0,5,5,8
1519294754690185,-12,-9,-11,-18,-9,-9,-6,-5
1519294754690185,-12,-11,-9,-2,1,-13,-10,-10
1519294754698229,10,14,9,13,8,9,8,8
1519294754698229,-9,-10,-9,-5,-18,-8,-9,-9
1519294754713305,2,1,-2,-6,-6,-3,-2,0
1519294754713305,5,8,12,29,17,6,4,4
1519294754720253,-7,-9,-14,-15,-12,-4,-6,-5
1519294754720253,5,10,3,7,-9,5,6,5
1519294754735313,-6,-4,-1,-5,0,-7,-3,-5
1519294754735313,-10,-9,-10,-4,-4,0,-7,-8
1519294754750351,14,15,10,10,0,4,8,9
1519294754750351,-10,-9,-10,-10,-8,-8,-6,-6
1519294754758312,-5,-6,-4,-12,-7,-6,-4,-3
1519294754758312,7,8,10,15,9,5,5,5
1519294754772682,-11,-14,-14,-7,-12,-9,-8,-8
1519294754772682,10,11,2,-15,3,6,9,7
1519294754780717,-5,-2,9,23,9,-2,-3,-4
1519294754780717,5,0,4,4,2,4,1,4
1519294754795754,17,15,5,6,-4,12,10,10
1519294754795754,-12,-13,0,4,-5,-11,-7,-12
1519294754809789,-5,-9,-9,-34,-7,-2,-4,-6
1519294754809789,8,9,10,9,9,4,6,5
1519294754817842,-10,-11,-13,-15,-18,-11,-6,-7
1519294754817842,6,10,4,5,10,8,5,4
1519294754840871,-1,0,-1,1,0,0,0,0
1519294754840871,-1,-5,-8,-2,-6,-3,-1,-1
1519294754848154,0,0,8,-3,11,-1,-1,0
1519294754848154,-10,-10,-8,-8,-15,-7,-6,-7
1519294754863180,-8,-7,-8,-3,-8,-6,-4,-5
1519294754863180,11,11,10,16,4,10,7,9
1519294754877971,-10,-12,-15,-4,0,-8,-7,-8
1519294754877971,5,4,18,12,8,4,3,3
1519294754885115,-1,1,-7,-3,-9,-1,1,0
1519294754885115,-4,-6,0,-7,-4,-6,-6,-5
1519294754893010,2,3,11,9,-10,0,0,1
1519294754893010,-8,-11,-18,-10,-4,-9,-8,-8
1519294754900533,15,11,12,14,14,11,9,11
1519294754900533,-9,-11,-10,-14,-6,-9,-8,-5
1519294754915520,-12,-14,-10,-5,-11,-5,-7,-8
1519294754915520,5,6,-6,-1,-20,-5,0,3
1519294754930340,3,6,8,-5,27,8,3,1
1519294754930340,-3,-9,-11,-5,-11,-3,-5,-4
1519294754938332,5,7,20,4,-6,1,5,3
1519294754938332,-8,-8,-11,1,12,-5,-3,-5
1519294754960395,9,7,-1,-1,-7,7,5,8
1519294754960395,-11,-6,2,7,-25,-13,-7,-8
1519294754967659,-10,-14,-21,3,-5,-8,-9,-9
1519294754967659,12,13,16,16,7,9,9,8
1519294754982744,6,7,2,-2,1,6,3,4
1519294754982744,-5,-9,-10,-12,-3,-4,-6,-5
1519294755005176,5,6,4,-25,-11,-3,4,3
1519294755005176,-7,-5,-8,-2,2,-5,-4,-3
1519294755012441,7,8,13,8,3,6,3,6
1519294755012441,-6,-6,-4,-14,-1,-6,-3,-6
1519294755020213,-12,-16,-16,7,-5,-8,-10,-9
1519294755020213,12,14,17,5,11,9,7,7
1519294755027232,-12,-13,-4,-16,-11,-12,-9,-8
1519294755027232,0,2,-10,-12,-5,0,-1,1
1519294755042457,8,9,18,30,14,10,5,5
1519294755042457,-10,-15,-20,-20,-24,-17,-9,-8
1519294755057828,-10,-9,-4,-4,-7,-6,-7,-7
1519294755057828,12,10,8,6,15,6,8,9
1519294755072905,-11,-10,-12,4,-7,-9,-8,-8
1519294755072905,-5,-8,-8,-3,-2,-6,-5,-3
1519294755080241,8,10,11,0,8,5,5,7
1519294755080241,-11,-14,-11,-4,-13,-7,-8,-8
1519294755094947,9,11,3,6,9,5,7,7
1519294755094947,-1,3,7,0,2,2,0,0
1519294755103158,2,0,-7,-2,14,6,2,0
1519294755103158,-3,0,1,-6,7,-7,-3,-2
1519294755125030,-14,-13,-13,7,-19,-15,-10,-11
1519294755125030,-4,-6,-3,-29,-1,-2,-6,-6
1519294755140070,10,10,6,-33,17,10,6,7
1519294755140070,-9,-12,-5,25,-19,-6,-8,-8
1519294755148089,6,5,4,0,4,2,3,4
1519294755148089,0,1,-3,8,0,-5,2,0
1519294755162128,-2,-5,3,4,5,1,-3,-3
1519294755162128,1,3,-10,2,6,3,2,1
1519294755177165,10,13,15,20,13,7,9,9
1519294755177165,-11,-11,-16,-8,-9,-9,-9,-8
1519294755192466,3,4,1,-21,-12,4,2,3
1519294755192466,1,2,2,-5,-27,-9,-1,0
1519294755200227,-6,-10,-11,-7,11,-2,-5,-5
1519294755200227,5,8,9,1,-1,5,5,4
1519294755215267,-9,-9,-10,-2,-4,-9,-6,-8
1519294755215267,11,10,9,33,16,13,7,7
1519294755222285,-10,-8,-5,-31,-11,-6,-5,-7
1519294755222285,-12,-13,-6,5,-15,-10,-8,-8
1519294755237326,8,8,3,15,2,5,4,4
1519294755237326,3,3,3,5,9,4,4,2
1519294755253370,-6,-8,-8,-2,1,-1,-6,-5
1519294755253370,2,5,8,-1,14,3,3,1
1519294755260387,-6,-7,-11,-1,-6,-6,-5,-5
1519294755260387,9,10,13,7,3,7,6,7
1519294755275431,-9,-8,-7,5,-12,-9,-5,-7
1519294755275431,-12,-14,-12,-14,-6,-9,-8,-11
1519294755282444,13,11,9,28,5,10,8,9
1519294755282444,-11,-14,-18,-25,-2,-12,-9,-9
1519294755297486,-8,-8,-1,-2,-17,-9,-7,-7
1519294755297486,5,7,5,6,8,7,4,4
1519294755312525,-7,-5,-8,-7,-6,-9,-4,-6
1519294755312525,9,8,4,-2,8,9,5,8
1519294755320550,-6,-7,-7,-4,-8,-4,-4,-4
1519294755320550,-12,-12,-11,-29,-11,-13,-9,-10
1519294755335590,10,11,6,6,10,11,8,7
1519294755335590,-10,-11,-9,-10,-13,-12,-8,-8
1519294755342942,-3,-3,-6,-4,-2,0,-3,-2
1519294755342942,5,7,12,30,32,10,7,5
1519294755357906,-5,-4,-6,-5,-4,-7,-3,-4
1519294755357906,6,3,5,11,-1,7,3,5
1519294755372945,-3,-1,-1,10,5,-3,-2,-2
1519294755372945,-10,-12,-16,-8,-5,-9,-7,-9
1519294755379964,14,14,11,0,10,10,10,10
1519294755379964,-10,-12,-11,-5,-21,-7,-8,-11
1519294755403025,-4,-6,-2,16,0,-3,-5,-3
1519294755403025,6,10,8,-4,3,6,5,6
1519294755410041,-9,-12,-9,1,0,-5,-6,-7
1519294755410041,9,9,3,-2,-2,6,6,7
1519294755425083,-1,0,-10,-3,16,3,0,-1
1519294755425083,-10,-11,1,-9,-37,-13,-9,-11
1519294755440140,15,17,13,18,37,13,10,13
1519294755440140,-12,-12,-6,-7,-11,-11,-8,-10
1519294755447139,-5,-7,-5,-6,-4,-6,-4,-4
1519294755447139,8,10,5,3,6,7,6,7
1519294755455164,-11,-15,-14,-14,-3,-4,-9,-9
1519294755455164,3,3,4,20,2,0,1,2
1519294755462179,-1,4,5,-38,-11,-2,-1,0
1519294755462179,-4,-8,-3,15,3,-1,-5,-5
1519294755477232,15,13,15,23,-2,12,10,11
1519294755477232,-10,-9,-9,-10,-3,-9,-8,-7
1519294755492589,-7,-9,-4,-13,-9,-7,-3,-7
1519294755492589,12,12,8,16,2,14,8,8
1519294755500631,-8,-10,-10,0,-9,-5,-5,-6
1519294755500631,4,4,0,-11,12,2,3,5
1519294755515321,1,1,1,11,-21,-3,0,0
1519294755515321,-3,-5,8,40,0,-2,-3,-2
1519294755522343,3,6,0,-8,0,2,3,3
1519294755522343,-8,-6,-7,-6,-2,-5,-5,-5
1519294755537383,-13,-15,-7,-3,-17,-8,-10,-9
1519294755537383,12,15,12,9,20,5,6,10
1519294755552450,-11,-14,-7,-13,-28,-17,-11,-11
1519294755552450,8,8,3,-8,8,13,7,6
1519294755560467,3,5,1,11,-6,-3,3,2
1519294755560467,-6,-7,-6,-9,-7,-5,-5,-4
1519294755575512,1,1,-3,18,3,1,1,1
1519294755575512,-8,-6,-3,-36,2,-5,-5,-7
1519294755582581,8,6,7,22,7,8,5,6
1519294755582581,-9,-9,-8,-1,-18,-7,-4,-8
1519294755597605,-13,-11,-6,-8,4,-10,-10,-9
1519294755597605,3,1,-2,3,-5,2,0,0
1519294755612823,8,7,2,0,4,7,6,4
1519294755612823,-7,-11,-5,-13,0,-4,-8,-7
1519294755619823,8,10,2,5,28,6,7,5
1519294755619823,-6,-6,0,-1,-15,0,-3,-5
1519294755634863,8,8,6,1,2,8,5,6
1519294755634863,-7,-6,-11,5,3,-8,-6,-5
1519294755643068,-12,-13,-10,4,3,-7,-9,-8
1519294755643068,9,12,8,13,7,4,8,7
1519294755658193,7,8,7,8,7,6,5,4
1519294755658193,-8,-13,-6,-12,-4,-6,-8,-6
1519294755673233,11,14,11,7,8,7,9,7
1519294755673233,-4,-4,-6,-1,-4,-3,-2,-2
1519294755680238,6,4,1,-4,-8,1,1,4
1519294755680238,-2,-1,4,-1,-12,-4,-2,-3
1519294755695024,-11,-13,-10,-8,16,-10,-7,-9
1519294755695024,13,15,10,19,-5,10,9,10
1519294755703271,-10,-11,-9,-18,-24,-11,-8,-8
1519294755703271,-5,-5,-11,7,7,-7,-4,-4
1519294755717147,8,8,7,19,-1,6,5,4
1519294755717147,-2,1,0,17,18,0,1,0
1519294755732191,2,-2,-8,-41,-3,1,-2,1
1519294755732191,0,0,4,16,0,-1,1,1
1519294755740212,-12,-12,-9,-14,-13,-11,-7,-8
1519294755740212,15,17,17,9,12,14,10,13
1519294755755584,-12,-12,-16,-4,-10,-8,-7,-9
1519294755755584,-5,-8,-16,-12,2,-4,-4,-6
1519294755763365,9,12,21,7,-2,3,7,6
1519294755763365,-8,-11,-11,1,7,-1,-8,-8
1519294755777308,-2,-8,-5,5,6,4,-4,-2
1519294755777308,1,4,0,-9,-8,0,2,2
1519294755792647,-7,-9,-3,6,1,-7,-7,-8
1519294755792647,13,13,8,9,-4,10,8,10
1519294755800371,-9,-10,-12,-9,4,-7,-5,-9
1519294755800371,-6,-7,1,-7,-15,-7,-7,-7
1519294755815409,12,14,9,6,13,12,8,8
1519294755815409,-11,-12,-9,-6,-5,-9,-9,-8
1519294755822427,3,7,11,0,4,3,2,5
1519294755822427,1,2,-1,3,-1,-2,1,-1
1519294755837564,-8,-9,-15,-10,-39,-15,-6,-6
1519294755837564,11,10,12,9,24,17,8,9
1519294755853179,-10,-10,-9,-32,-3,-17,-9,-8
1519294755853179,-12,-14,-8,-10,-11,-10,-9,-10
1519294755860094,12,16,12,20,17,13,8,9
1519294755860094,-13,-15,-20,-47,-19,-11,-10,-9
1519294755875331,7,6,16,11,15,3,6,3
1519294755875331,6,6,0,12,5,2,3,3
1519294755882364,-7,-10,-9,-15,-2,-5,-6,-6
1519294755882364,3,3,-1,3,-7,1,2,3
1519294755898197,-9,-7,-5,0,-1,-5,-6,-6
1519294755898197,-12,-13,-8,-3,-3,-13,-9,-8
1519294755912432,13,11,5,2,6,11,9,8
1519294755912432,-12,-12,-8,-4,-13,-10,-8,-9
1519294755920221,2,2,2,7,26,6,1,1
1519294755920221,6,8,7,11,-22,0,5,5
1519294755935524,-8,-10,-9,-5,-16,-8,-7,-5
1519294755935524,7,10,6,-28,15,8,6,6
1519294755950802,-5,-4,-4,-1,-7,-5,-3,-6
1519294755950802,9,7,2,6,6,8,7,6
1519294755965812,10,9,2,-9,3,12,7,8
1519294755965812,-11,-11,-9,-6,-6,-10,-9,-8
1519294755980647,-4,-3,-1,-1,-7,-2,-5,-6
1519294755980647,4,7,2,5,-3,5,4,5
1519294755987662,-10,-13,-17,-13,-3,-9,-10,-8
1519294755987662,10,12,11,7,6,7,7,6
1519294756002737,-3,-4,-1,17,2,-5,-1,-2
1519294756002737,-12,-14,-17,-46,-17,-6,-9,-8
1519294756017744,15,15,16,10,15,13,11,10
1519294756017744,-10,-11,-12,2,0,-9,-9,-10
1519294756024764,-6,-5,-4,-4,-15,-5,-5,-3
1519294756024764,7,9,6,18,5,8,6,7
1519294756039801,0,0,1,-6,-17,0,0,1
1519294756039801,1,-2,1,7,8,0,-2,0
1519294756054877,-1,0,-5,0,6,2,0,-1
1519294756054877,-12,-12,-7,19,-11,-8,-6,-9
1519294756062863,16,17,12,-39,12,16,10,12
1519294756062863,-12,-12,-8,-5,-8,-11,-8,-10
1519294756077902,-6,-9,-17,-1,1,-4,-5,-4
1519294756077902,9,12,18,4,-6,0,6,6
1519294756084921,-11,-13,-8,-3,-6,-2,-6,-8
1519294756084921,4,4,1,-6,6,-1,1,2
1519294756100237,2,7,17,11,9,0,2,3
1519294756100237,-10,-11,-14,-7,-1,-7,-8,-7
1519294756115278,15,15,7,9,6,9,8,10
1519294756115278,-12,-10,-10,-15,-12,-7,-8,-8
1519294756122299,-8,-9,-11,4,7,-7,-5,-6
1519294756122299,11,14,13,29,7,7,9,7
1519294756137340,-9,-12,-11,-42,-20,-12,-8,-7
1519294756137340,4,5,7,7,9,7,5,5
1519294756145621,1,3,3,2,1,0,0,0
1519294756145621,-4,-5,-1,15,-5,-2,-3,-3
1519294756159711,9,9,8,9,-14,3,5,6
1519294756159711,-9,-8,-8,-16,-9,-5,-5,-8
1519294756174734,-11,-12,-11,-8,-21,-11,-9,-10
1519294756174734,14,16,10,5,21,17,10,10
1519294756182866,-12,-13,-8,0,-2,-10,-9,-9
1519294756182866,6,6,4,0,-3,1,2,4
1519294756198114,4,4,4,10,0,2,3,4
1519294756198114,-8,-10,-9,8,-7,-4,-6,-5
1519294756205121,2,4,-3,-2,15,5,2,3
1519294756205121,-3,-5,0,-7,-8,-9,-6,-6
1519294756227962,-12,-15,-14,-16,-11,-19,-10,-8
1519294756227962,13,12,12,6,11,12,8,10
1519294756243006,-12,-11,-9,-1,-10,-9,-8,-9
1519294756243006,2,2,4,-7,0,1,1,-1
1519294756250031,8,10,6,4,11,10,7,5
1519294756250031,-7,-10,-15,-12,-3,-6,-6,-8
1519294756273278,9,11,13,18,2,6,6,8
1519294756273278,-3,-4,-4,-13,-12,-7,-4,-4
1519294756280141,9,10,11,18,20,7,5,6
1519294756280141,-7,-4,-7,-25,0,-1,-3,-4
1519294756288211,-10,-12,-6,21,-3,-9,-6,-10
1519294756288211,-3,-3,-5,-1,-1,-2,-3,-4
1519294756310274,5,8,7,3,14,9,5,6
1519294756310274,-10,-11,-9,-18,-7,-8,-8,-9
1519294756317294,11,13,7,13,-18,0,5,7
1519294756317294,-3,-3,-1,5,2,-3,-1,0
1519294756325316,6,4,0,-5,3,7,3,2
1519294756325316,-5,-1,5,7,2,-3,-4,0
1519294756340675,-10,-12,-14,-10,-8,-7,-7,-8
1519294756340675,14,13,15,17,8,11,10,10
1519294756355392,7,7,11,2,16,4,3,4
1519294756355392,-1,2,3,27,-20,0,1,0
1519294756370563,0,0,-6,-48,8,3,-1,0
1519294756370563,1,3,0,5,6,4,2,-1
1519294756377472,-10,-11,-12,-4,-24,-12,-6,-7
1519294756377472,16,14,16,6,17,6,9,13
1519294756392494,-11,-12,-13,-5,-14,-12,-7,-8
1519294756392494,-7,-8,0,2,2,-2,-4,-6
1519294756407534,4,5,2,-2,7,8,4,4
1519294756407534,0,3,2,-2,-6,-3,0,-2
1519294756415792,-5,-8,-2,-2,-15,-6,-5,-4
1519294756415792,3,3,-3,5,4,0,4,2
1519294756430597,-11,-10,-5,-2,1,-7,-7,-6
1519294756430597,14,13,11,8,2,11,9,8
1519294756437611,-9,-8,-13,7,-11,-9,-6,-6
1519294756437611,-9,-8,6,-14,0,-5,-8,-8
1519294756452654,13,14,9,20,16,11,9,10
1519294756452654,-10,-12,-10,-15,-14,-14,-10,-8
1519294756467694,-5,-8,-2,-8,-19,-8,-6,-5
1519294756467694,3,5,-2,3,3,2,2,5
1519294756475716,-7,-8,-12,-6,3,-5,-4,-4
1519294756475716,10,10,19,21,15,11,7,10
1519294756489753,-10,-10,-6,-15,-18,-6,-6,-10
1519294756489753,-12,-14,-12,-11,-17,-12,-8,-7
1519294756504789,11,14,13,8,15,12,8,9
1519294756504789,-11,-12,-17,-6,-3,-10,-8,-10
1519294756519829,5,6,10,5,-13,-3,2,5
1519294756519829,4,6,7,-2,5,7,5,5
1519294756534874,-10,-8,-11,4,5,-4,-4,-5
1519294756534874,9,6,8,5,5,9,6,6
1519294756542897,-9,-10,-5,-6,-12,-9,-5,-6
1519294756542897,-11,-12,-22,-44,-8,-7,-8,-8
1519294756557934,0,3,9,-42,-2,5,1,0
1519294756557934,6,10,7,13,2,3,4,4
1519294756573250,-6,-11,-11,-6,0,-2,-6,-5
1519294756573250,8,10,6,0,-2,0,6,5
1519294756588054,-4,-5,-4,-5,0,-3,-3,-2
1519294756588054,-12,-13,-8,-4,0,-7,-7,-10
1519294756595075,12,10,8,8,-11,5,8,9
1519294756595075,-12,-11,-12,-19,-14,-9,-8,-10
1519294756610118,-2,-5,-8,29,4,-6,-3,-5
1519294756610118,5,8,7,-3,28,9,6,6
1519294756617155,-11,-14,-12,-47,-15,-9,-10,-8
1519294756617155,10,10,12,10,3,7,7,8
1519294756633170,-4,-4,-10,-7,-5,-2,-2,-3
1519294756633170,4,3,1,11,3,4,1,3
1519294756648267,15,16,12,3,7,14,11,11
1519294756648267,-11,-13,-10,-9,-11,-7,-7,-9
1519294756655229,-4,-6,-8,6,2,-2,-4,-4
1519294756655229,5,9,8,9,-7,1,6,6
1519294756670270,-10,-12,-7,-3,-3,-7,-8,-6
1519294756670270,8,11,9,-2,3,7,4,6
1519294756677288,1,3,4,28,7,-3,0,0
1519294756677288,0,-3,-5,-43,-5,-2,-1,-1
1519294756700831,1,4,0,2,-7,0,1,0
1519294756700831,-10,-12,-9,-8,-11,-10,-8,-8
1519294756715787,-8,-9,-11,-17,-5,-3,-6,-5
1519294756715787,10,11,3,6,6,10,7,7
1519294756722944,-10,-8,2,-4,-14,-12,-7,-9
1519294756722944,2,5,5,6,6,2,2,3
1519294756737735,0,2,-8,-5,3,1,1,0
1519294756737735,-4,-6,2,19,1,-6,-5,-4
1519294756752775,13,14,19,18,20,14,9,10
1519294756752775,-10,-10,-8,-5,-19,-13,-8,-8
1519294756768430,-9,-13,-6,-8,-12,-10,-6,-6
1519294756768430,6,4,-3,-12,1,3,3,3
1519294756783352,0,2,-1,6,19,1,1,2
1519294756783352,-3,-6,-4,3,3,-3,-5,-2
1519294756797615,4,7,9,12,0,0,1,2
1519294756797615,-6,-7,-6,-12,-9,-7,-3,-4
1519294756805608,11,6,7,-14,-4,9,6,6
1519294756805608,-11,-9,-14,5,2,-13,-7,-8
1519294756820604,-11,-14,-9,-10,-13,-12,-9,-10
1519294756820604,11,13,15,9,7,12,8,9
1519294756835696,5,6,7,4,8,3,5,4
1519294756835696,-9,-7,-8,13,-2,-7,-7,-5
1519294756849932,8,6,2,-36,3,6,5,5
1519294756849932,-8,-8,-9,0,0,-5,-6,-7
1519294756857698,-11,-13,-9,-7,-14,-8,-7,-7
1519294756857698,13,12,13,10,11,13,9,9
1519294756879797,-13,-13,-10,3,-8,-13,-9,-11
1519294756879797,-2,-3,-7,-34,-23,1,0,1
1519294756903054,9,8,5,11,18,14,9,6
1519294756903054,-4,-1,-4,-2,-1,-6,-2,-3
1519294756909836,9,7,14,16,-1,7,5,5
1519294756909836,-5,-5,-1,-7,4,-3,-2,-3
1519294756925133,-12,-12,-10,-8,-12,-10,-7,-9
1519294756925133,14,14,12,15,14,10,7,10
1519294756940173,7,10,8,0,-22,-3,4,6
1519294756940173,-12,-15,-12,-3,-4,-6,-7,-9
1519294756954961,-10,-13,-16,-6,3,-3,-7,-7
1519294756954961,15,15,14,8,-25,0,8,11
1519294756970000,-12,-14,-9,-8,-1,-9,-9,-9
1519294756970000,-6,-8,-8,0,-2,-4,-3,-5
1519294756977255,9,10,15,19,-1,7,6,7
1519294756977255,-10,-9,-13,-1,2,-6,-6,-7
1519294756992643,7,8,12,2,-8,6,3,2
1519294756992643,0,1,4,9,0,-4,2,-1
1519294757000341,-2,-6,-12,-7,-2,-6,-2,-3
1519294757000341,0,2,8,16,6,3,3,0
1519294757022560,-12,-11,-14,-52,-15,-10,-11,-9
1519294757022560,-5,-7,-7,-11,-6,-5,-4,-4
1519294757037737,9,11,5,9,14,9,6,9
1519294757037737,-10,-11,-5,-9,8,-3,-7,-7
1519294757045599,5,4,1,10,-1,-2,4,4
1519294757045599,1,0,-2,-2,4,0,0,0
1519294757067781,-3,-9,-6,-23,-1,-3,-4,-3
1519294757067781,1,5,-1,-3,-2,-1,0,1
1519294757075713,-10,-9,-6,1,-10,-6,-6,-5
1519294757075713,14,14,24,5,15,15,8,8
1519294757082834,12,13,0,19,7,4,7,8
1519294757082834,-11,-11,-6,-42,-3,-6,-9,-9
1519294757097663,5,5,2,6,6,5,2,5
1519294757097663,3,5,6,2,-4,0,1,2
1519294757104685,-4,-5,-2,6,-6,-6,-4,-4
1519294757104685,3,4,-3,11,13,8,2,0
1519294757112686,-8,-6,-5,-5,-18,-6,-4,-6
1519294757112686,11,10,9,2,6,3,6,8
1519294757119724,-10,-9,-7,-28,-15,-5,-6,-9
1519294757119724,-11,-12,-13,-6,-3,-11,-7,-9
1519294757135780,10,12,10,10,16,12,9,8
1519294757135780,-13,-15,-7,11,-9,-10,-9,-9
1519294757150029,-6,-9,-8,-4,-1,-8,-6,-5
1519294757150029,2,5,5,8,7,2,3,4
1519294757157831,-6,-7,-12,-7,-1,-9,-5,-5
1519294757157831,8,6,0,8,10,9,4,5
1519294757172939,-7,-7,-8,1,-11,-7,-6,-7
1519294757172939,-10,-14,-9,-8,-1,-8,-8,-9
1519294757180282,11,12,15,12,-6,6,9,8
1519294757180282,-11,-15,-20,-12,-9,-12,-9,-7
1519294757194937,0,0,6,6,4,4,1,2
1519294757194937,6,7,4,-2,-3,3,5,5
1519294757209978,-4,-6,-7,0,12,-7,-3,-5
1519294757209978,10,9,5,1,4,11,5,4
1519294757218040,-7,-4,1,8,-14,-5,-3,-6
1519294757218040,-9,-9,-3,-7,-10,-8,-7,-8
1519294757233017,11,12,8,9,11,8,8,8
1519294757233017,-12,-12,-18,-15,-4,-9,-9,-8
1519294757240028,-5,-4,-2,2,1,-1,-5,-4
1519294757240028,7,6,-1,-25,-6,4,4,2
1519294757255065,-10,-12,-8,15,-7,-8,-7,-6
1519294757255065,8,10,13,7,1,10,7,9
1519294757270327,-4,0,3,2,-2,-3,-1,-3
1519294757270327,-11,-13,-9,-13,-10,-17,-9,-10
1519294757278128,15,15,11,6,5,18,11,11
1519294757278128,-13,-13,-12,4,8,-12,-10,-9
1519294757292168,-6,-6,-5,-9,-5,3,-5,-5
1519294757292168,9,10,5,1,5,8,6,5
1519294757300186,-9,-11,-4,-13,-5,-11,-8,-9
1519294757300186,7,7,-1,7,10,3,5,5
1519294757315245,2,2,2,18,-13,2,1,-1
1519294757315245,-2,-1,0,-47,5,-2,-2,-2
1519294757338336,16,13,10,9,18,12,11,12
1519294757338336,-9,-11,-11,6,-8,-9,-7,-10
1519294757345307,-8,-9,-7,-11,-24,-11,-7,-6
1519294757345307,9,12,5,6,17,12,7,8
1519294757360400,-9,-10,-11,-11,-23,-12,-7,-5
1519294757360400,4,6,7,17,4,1,3,3
1519294757367445,1,2,-2,4,6,-2,1,0
1519294757367445,-6,-8,-7,-24,-5,1,-4,-5
1519294757382695,3,3,2,-3,13,3,2,1
1519294757382695,-10,-10,-14,-1,-12,-8,-7,-7
1519294757390885,-6,-7,1,-12,1,-7,-7,-7
1519294757390885,11,14,12,8,2,8,8,8
1519294757398073,-11,-14,-17,-5,-4,-10,-7,-9
1519294757398073,5,6,5,4,-9,3,2,2
1519294757413087,2,5,-3,-13,4,2,3,2
1519294757413087,-3,-6,3,11,-2,-1,-2,-1
1519294757420870,4,9,7,12,6,3,3,3
1519294757420870,-8,-7,-2,-40,-3,-7,-4,-8
1519294757434802,11,10,5,1,2,10,6,7
1519294757434802,-9,-11,-6,-9,-18,-5,-6,-7
1519294757449837,-14,-17,-13,-4,-3,-9,-10,-10
1519294757449837,5,5,5,-14,3,3,3,5
1519294757457859,5,7,8,5,13,9,5,3
1519294757457859,-4,-9,-6,8,-17,-7,-5,-4
1519294757472898,3,4,4,0,-2,-1,1,3
1519294757472898,-8,-5,-8,4,4,-5,-5,-6
1519294757479967,8,9,9,8,-2,8,6,7
1519294757479967,-8,-6,-2,-7,16,-4,-5,-5
1519294757494963,-13,-13,-12,-10,-6,-6,-10,-10
1519294757494963,13,11,10,6,9,9,7,8
1519294757509997,7,10,4,-5,17,3,5,6
1519294757509997,-8,-10,-10,7,-4,-4,-9,-7
1519294757518024,8,9,15,-1,10,7,6,6
1519294757518024,-5,-5,-10,1,-13,1,-3,-5
1519294757532056,9,7,12,3,9,7,5,5
1519294757532056,-6,-3,-3,5,5,-3,-1,-4
1519294757540077,-12,-14,-14,-7,-6,-10,-7,-8
1519294757540077,10,12,17,6,5,11,8,9
1519294757555118,-9,-10,-9,-9,-12,-9,-8,-9
1519294757555118,-3,-5,-4,-4,-8,-6,-5,-4
1519294757570656,9,10,6,4,-21,6,5,7
1519294757570656,-2,0,0,-3,15,1,0,-1
1519294757577367,5,2,-1,2,8,5,3,2
1519294757577367,-1,-1,-4,19,1,-3,-2,-2
1519294757592658,-10,-9,-8,-24,-8,-11,-7,-9
1519294757592658,12,15,12,28,2,9,9,11
1519294757600426,-12,-12,-12,-48,-4,-6,-8,-11
1519294757600426,-6,-7,-7,0,-15,-7,-6,-5
1519294757615470,4,8,6,16,10,6,7,5
1519294757615470,-10,-13,-7,-5,-15,-10,-7,-8
1519294757630511,-1,-2,-6,-3,4,-3,-2,0
1519294757630511,-1,-1,1,-7,0,0,0,-2
1519294757644561,-10,-12,-7,-4,-9,-5,-6,-8
1519294757644561,14,12,10,5,5,6,9,10
1519294757659583,-13,-12,-18,-5,-13,-10,-8,-8
1519294757659583,-6,-4,5,5,-3,-4,-5,-4
1519294757667605,10,10,7,26,7,5,7,8
1519294757667605,-6,-10,-1,-6,-9,-7,-4,-4
1519294757682702,3,4,4,10,21,5,3,3
1519294757682702,0,1,-5,-8,-26,-9,0,0
1519294757697689,-11,-9,-3,13,0,-5,-8,-6
1519294757697689,-8,-8,-12,-16,-10,-7,-5,-6
1519294757712728,12,11,16,10,8,10,7,8
1519294757712728,-11,-13,-13,-12,-4,-9,-9,-8
1519294757719747,5,4,4,12,6,2,2,4
1519294757719747,0,5,2,-5,-1,1,3,1
1519294757734784,-5,-8,-6,2,-12,-2,-5,-6
1519294757734784,3,7,8,0,14,1,4,2
1519294757749958,-8,-8,-10,-14,-5,-8,-7,-7
1519294757749958,-10,-14,-15,-6,-8,-5,-8,-9
1519294757757979,13,12,11,-3,9,8,10,10
1519294757757979,-14,-15,-14,-1,-4,-9,-9,-13
1519294757773023,5,5,1,-13,0,4,3,2
1519294757773023,5,6,11,4,-3,1,0,3
1519294757780038,-6,-9,-6,-12,-6,-6,-6,-5
1519294757780038,4,4,3,6,5,6,2,4
1519294757795092,-7,-8,-5,5,1,-5,-5,-5
1519294757795092,9,8,4,10,6,8,6,7
1519294757810117,11,12,8,9,1,9,9,8
1519294757810117,-10,-11,-6,-16,2,-9,-6,-8
1519294757818154,1,1,2,2,5,-3,0,0
1519294757818154,8,7,4,8,8,11,5,4
1519294757832181,-8,-10,-5,-11,-25,-12,-8,-7
1519294757832181,5,8,2,2,-3,5,4,6
1519294757840506,-7,-6,-9,0,-3,-6,-4,-4
1519294757840506,8,8,9,12,3,7,6,8
1519294757855522,-6,-5,-5,-3,7,-4,-4,-3
1519294757855522,-11,-10,-5,-4,-7,-7,-7,-10
1519294757862265,10,10,10,10,-5,3,8,7
1519294757862265,-11,-13,-21,-16,-5,-6,-8,-10
1519294757870314,-3,-6,1,5,-1,-6,-5,-5
1519294757870314,5,8,7,10,4,8,6,5
1519294757877303,-9,-12,-10,-10,-4,-5,-8,-8
1519294757877303,8,11,7,-3,3,6,8,7
1519294757900357,-4,-2,-3,4,1,-3,-1,-3
1519294757900357,5,2,-3,-4,3,7,3,3
1519294757907378,-2,-1,-4,-11,-4,-5,-3,-2
1519294757907378,-12,-14,-12,-3,-21,-14,-10,-11
1519294757915641,13,13,2,4,20,13,10,12
1519294757915641,-11,-12,-3,-2,-12,-9,-9,-7
1519294757922986,-5,-7,-7,-33,-10,-4,-4,-4
1519294757922986,7,8,7,-2,7,3,5,4
1519294757937792,-11,-10,-13,-3,-4,-3,-6,-7
1519294757937792,9,11,16,2,12,5,5,5
1519294757952809,1,1,5,0,-5,0,0,-2
1519294757952809,-10,-11,-17,-33,-11,-9,-5,-8
1519294757959827,17,17,15,16,12,8,10,13
1519294757959827,-12,-15,-9,-18,-27,-9,-9,-10
1519294757967850,-6,-6,-3,-9,-3,-6,-4,-5
1519294757967850,7,8,3,15,3,8,5,7
1519294757974868,-10,-10,-4,-3,-1,-4,-7,-7
1519294757974868,5,5,4,-2,0,1,1,4
1519294757989905,-1,2,1,-7,4,-3,0,0
1519294757989905,-4,-8,-13,-9,-5,-2,-2,-3
1519294757997931,1,4,8,4,4,0,1,1
1519294757997931,-9,-8,-3,19,1,-6,-6,-7
1519294758013231,14,13,12,-9,23,13,9,8
1519294758013231,-9,-10,-9,-3,-15,-9,-7,-7
1519294758019985,-7,-8,-11,-7,5,-9,-6,-6
1519294758019985,11,12,10,13,14,11,9,8
1519294758028007,-10,-10,-7,-10,-36,-12,-10,-8
1519294758028007,4,5,2,10,4,5,2,3
1519294758035028,0,1,2,7,3,3,3,2
1519294758035028,-6,-7,-10,-19,-10,-4,-4,-2
1519294758050065,3,6,7,12,16,5,4,5
1519294758050065,-6,-5,-3,-5,-17,-12,-2,-5
1519294758057087,12,11,5,10,-2,9,5,7
1519294758057087,-9,-7,-11,-23,9,-7,-5,-8
1519294758073126,-10,-12,-8,1,-5,-8,-8,-9
1519294758073126,11,11,6,12,-3,9,7,10
1519294758080188,-11,-14,-11,-8,1,-8,-10,-11
1519294758080188,5,5,0,-11,-1,4,4,3
1519294758088170,6,8,12,29,2,3,4,4
1519294758088170,-5,-10,-6,-13,2,-5,-6,-6
1519294758095205,1,4,-2,5,13,4,3,2
1519294758095205,-6,-8,-8,-5,-26,-14,-6,-6
1519294758110227,9,7,14,1,-10,8,6,7
1519294758110227,-10,-7,-5,17,20,-5,-6,-7
1519294758118289,-10,-10,-11,-32,-10,-8,-7,-9
1519294758118289,11,13,6,17,12,15,7,8
1519294758140544,-11,-13,-6,-9,-9,-11,-9,-11
1519294758140544,3,2,0,3,2,1,0,3
1519294758147484,7,7,9,9,5,9,4,5
1519294758147484,-7,-10,-5,-6,-5,-9,-7,-5
1519294758155348,7,7,-2,3,7,5,5,4
1519294758155348,-5,-5,-1,-4,-4,-3,-4,-6
1519294758170632,9,7,4,4,2,5,5,6
1519294758170632,-6,-5,-5,-7,-6,-3,-3,-3
1519294758192466,-12,-11,-3,-1,-5,-11,-9,-6
1519294758192466,10,11,10,3,13,10,7,9
1519294758207520,5,7,-1,-4,9,7,6,6
1519294758207520,-10,-14,-9,-10,0,-7,-7,-9
1519294758215531,9,12,6,15,-2,4,6,7
1519294758215531,-5,-2,-1,16,20,-1,-3,-2
1519294758230782,8,5,-5,-7,-3,2,1,4
1519294758230782,-2,0,-4,-10,-9,0,-1,-1
1519294758237675,-9,-11,-6,-12,-6,-7,-8,-7
1519294758237675,15,12,19,20,13,13,11,10
1519294758244958,-12,-12,-13,-12,-7,-7,-7,-9
1519294758244958,-5,-7,-5,4,-9,-4,-5,-4
1519294758259734,8,9,5,7,10,9,5,7
1519294758259734,-1,1,5,16,-3,-2,2,0
1519294758267775,2,0,-2,2,-3,0,-2,0
1519294758267775,-3,1,5,-7,-1,1,0,-1
1519294758275777,-11,-12,-12,-4,-3,-12,-9,-9
1519294758275777,13,14,11,4,12,10,9,11
1519294758282796,-13,-13,-4,-4,-9,-11,-10,-9
1519294758282796,-6,-6,-15,-15,-4,-5,-3,-5
1519294758290816,9,9,10,16,1,6,6,5
1519294758290816,-9,-10,-11,-19,1,-6,-5,-8
1519294758298084,5,5,7,7,8,5,2,2
1519294758298084,1,-2,0,30,5,1,-1,0
1519294758313245,-2,-5,-3,-27,2,-1,-3,-3
1519294758313245,2,3,5,1,-1,3,1,1
1519294758320913,-12,-9,-17,-4,-2,-9,-7,-7
1519294758320913,15,15,22,16,5,12,9,10
1519294758327924,-10,-11,-13,2,-8,-7,-7,-8
1519294758327924,-7,-8,-4,-6,-7,-8,-6,-5
1519294758335938,11,10,5,6,2,8,10,8
1519294758335938,-10,-10,-4,-14,-7,-10,-7,-8
1519294758350370,3,4,-3,3,3,3,4,4
1519294758350370,0,3,8,1,2,2,0,-1
1519294758358000,-5,-7,-3,18,-5,-2,-5,-3
1519294758358000,3,4,-1,-29,3,0,3,2
1519294758372089,-10,-10,-8,-10,-1,-4,-5,-6
1519294758372089,11,11,1,1,-7,4,6,8
1519294758380091,-7,-9,-2,-3,1,-8,-6,-7
1519294758380091,-9,-11,-9,10,-13,-7,-7,-8
1519294758388458,11,14,11,6,19,0,6,8
1519294758388458,-12,-15,-12,-8,-6,-3,-9,-10
1519294758395874,6,6,2,-3,-1,5,3,3
1519294758395874,3,6,9,2,5,0,3,3
1519294758409829,-5,-7,-4,-3,-14,-3,-4,-4
1519294758409829,3,3,1,7,4,-2,2,0
