timestamp,x,y,z
1519294750137786,0.125,-0.0625,0.0625
1519294750170875,0.5,-0.1875,-0.0625
1519294750174885,0.375,0.0625,0.125
1519294750200980,-0.125,0.0625,0.0625
1519294750220007,-0.25,0.0625,0.0625
1519294750235046,0.0625,-0.0625,-0.0625
1519294750261114,-0.375,0,0.0625
1519294750304229,-1.0625,0.1875,0.1875
1519294750311248,-0.75,-0.0625,0.0625
1519294750351355,0,0.125,0.0625
1519294750370405,0.0625,-0.0625,-0.0625
1519294750400484,0.375,0.0625,0
1519294750422544,-0.75,0.25,0.0625
1519294750474733,-0.625,0.125,-0.25
1519294750512784,0.5625,0.3125,0.0625
1519294750534842,-1.375,0.1875,0
1519294750572946,0.5625,-0.375,0.125
1519294750595022,0,-0.125,0.3125
1519294750618068,-0.375,-0.0625,0.3125
1519294750625110,0.1875,-0.3125,0.3125
1519294750662183,0.25,0.125,0.25
1519294750700333,-0.875,0.1875,0.0625
1519294750715377,-0.875,0.3125,-0.0625
1519294750752424,-1.25,0.0625,0.0625
1519294750775484,-0.1875,0,0.125
1519294750812594,0,0.125,0.0625
1519294750834641,-0.1875,0.0625,0
1519294750872791,-0.25,0.1875,-0.0625
1519294750902861,0.125,-0.0625,0.0625
1519294750954960,0,0,0.375
1519294751000081,-0.5,0,0.0625
1519294751015133,-0.9375,0.125,0.0625
1519294751053280,-0.5625,0,0.125
1519294751075280,-0.5625,0.0625,0.1875
1519294751112728,-0.3125,-0.125,0.0625
1519294751135823,-0.25,-0.0625,0.0625
1519294751172864,0,0.1875,0
1519294751194890,-0.8125,0,0.0625
1519294751225465,0.625,-0.1875,0.0625
1519294751247544,-0.25,0.0625,0.0625
1519294751277365,-0.875,0.125,0.0625
1519294751292692,-0.125,-0.3125,0.0625
1519294751315749,0.375,-0.625,0.125
1519294751330537,0,-0.125,0.375
1519294751345592,0,-0.125,0.375
1519294751367635,-0.25,-0.125,0.125
1519294751390832,0.1875,-0.1875,0.125
1519294751405797,-0.4375,0.0625,0.1875
1519294751427795,-0.9375,0.1875,0
1519294751450856,-0.8125,0.375,0
1519294751465468,-0.9375,0.3125,0.0625
1519294751487274,-0.5625,0.0625,0
1519294751510329,-0.25,0,0.125
1519294751525370,-0.3125,0.0625,0
1519294751547427,-0.125,0.0625,0.0625
1519294751570487,0.125,0.0625,-0.0625
1519294751584748,-0.125,0.0625,-0.0625
1519294751607636,-0.125,0.125,0
1519294751629953,0.375,-0.0625,0.125
1519294751653081,0.3125,-0.3125,0.1875
1519294751668048,0.1875,-0.0625,0.0625
1519294751690897,-0.1875,-0.125,0.125
1519294751713162,-0.9375,0.0625,0.125
1519294751727951,-0.25,0.125,0.0625
1519294751750005,-0.125,0.125,0.0625
1519294751773120,-0.1875,0.125,0.0625
1519294751788108,-0.4375,-0.0625,0
1519294751817187,-0.4375,-0.0625,-0.0625
1519294751840597,0.0625,-0.1875,-0.125
1519294751855659,0.5625,0.1875,-0.0625
1519294751870360,-0.0625,0,-0.0625
1519294751893428,0.0625,0,-0.25
1519294751915706,0.1875,0.0625,-0.25
1519294751937893,-0.125,0.125,0.0625
1519294751967952,1.25,0,0.125
1519294751990015,-0.75,0,0.375
1519294752013345,-2.125,0,0.3125
1519294752027399,-0.3125,-0.125,0.4375
1519294752057700,-1.5625,-0.125,0.5625
1519294752080797,-2.375,-0.375,1.5
1519294752095773,-4,-0.5,2.8125
1519294752110170,-9.875,-1.75,5.5
1519294752133348,-22.8125,-2.4375,8.375
1519294752155700,-23.5,-0.5,9.75
1519294752177516,-23.3125,3,9.3125
1519294752200686,-22.25,5.0625,3.875
1519294752215848,-16.9375,6,1.625
1519294752230870,-10.625,9.125,1.0625
1519294752259983,-12.8125,8,-1.6875
1519294752282861,-16.8125,7.625,-0.8125
1519294752312293,-10,0.4375,-0.6875
1519294752350673,-2,-1.6875,1.875
1519294752380573,2.4375,-1.375,2.0625
1519294752418434,2.3125,-0.625,-0.125
1519294752433449,5.4375,-0.1875,-2.5625
1519294752470418,8.25,1.5625,-5.9375
1519294752500898,10.5625,2.25,-6.0625
1519294752537997,12.625,1.6875,-6.5625
1519294752553252,14.625,1.5,-6.0625
1519294752590373,10.1875,0.4375,-4.25
1519294752620243,6.3125,0.5,-3.875
1519294752657937,-2.375,1.375,-2.8125
1519294752673337,-6.3125,2,-1.75
1519294752710102,-7,1.875,-0.125
1519294752732807,-6.0625,2.0625,0
1519294752770575,-1.1875,0.8125,0.4375
1519294752800654,1.4375,0,0.6875
1519294752838386,7.3125,-1.75,1.625
1519294752853410,8.5,-1.9375,1.875
1519294752897773,2.5625,-2,2.875
1519294752920889,1.5,-1.9375,2.625
1519294752949951,-2.9375,-1.3125,2.8125
1519294752972436,-6.8125,-1.3125,3.625
1519294753017560,-7.1875,-1.5,3.375
1519294753070835,-4.25,-0.5625,2.3125
1519294753092310,-2.875,-0.375,1.3125
1519294753130194,0.125,-0.3125,-0.25
1519294753153256,1.0625,-0.5625,-1.25
1519294753190380,6.75,0.375,-3.8125
1519294753212462,7.3125,0.1875,-3.625
1519294753250564,7.5,-0.0625,-3.8125
1519294753272573,7.125,0.375,-4.4375
1519294753309976,6.625,0.125,-3.125
1519294753332126,7.625,0,-2.6875
1519294753370552,4.625,0.0625,-2.125
1519294753392283,1.125,0.3125,-1.375
1519294753430193,-2.6875,0.625,0.375
1519294753453199,-3.6875,-0.1875,1.8125
1519294753490396,-9.9375,-0.125,5.125
1519294753513434,-12.3125,0.625,5.5625
1519294753550296,-19.9375,2.3125,7.3125
1519294753572605,-22,2.3125,7.3125
1519294753610453,-17.125,1.1875,5.375
1519294753633074,-16.75,0.375,4.5
1519294753670723,-12.4375,0.9375,0.4375
1519294753693582,-2.625,2.5625,-3.25
1519294753737697,3.9375,3.3125,-7.6875
1519294753752999,13.125,1.1875,-7.1875
1519294753768041,21,0.0625,-5.4375
1519294753782821,26.1875,-0.6875,-4.5
1519294753804896,26.0625,-1.25,-5.1875
1519294753827978,21.9375,-0.875,-4.875
1519294753843232,15.9375,-0.25,-5.4375
1519294753865652,11.25,-0.125,-5.8125
1519294753888408,8.875,-0.625,-5.1875
1519294753910439,8,-0.375,-3.75
1519294753932497,6.5625,0.75,-4.75
1519294753955565,4.25,2.0625,-5.375
1519294753969930,1,3.0625,-4.625
1519294753984938,-2.0625,2.6875,-3.9375
1519294754015327,-2.875,2.125,-3
1519294754037403,-6.5,1.1875,-2.125
1519294754060480,-10.1875,0.9375,-0.625
1519294754075872,-10.3125,0.5625,0.5625
1519294754089858,-9,0.9375,1.5
1519294754105200,-8.375,0.9375,2.5
1519294754127959,-6.5,0.5625,2.8125
1519294754143244,-4.5625,-0.125,2.75
1519294754165139,-3.1875,-0.875,3.1875
1519294754187393,0.875,-1.4375,3.8125
1519294754202180,1.625,-2.25,4.3125
1519294754225494,1.75,-2.6875,4.625
1519294754247613,0.75,-2.9375,4.6875
1519294754262615,-4.5,-3.125,5.5
1519294754292808,-9.25,-3.0625,6.0625
1519294754314771,-9.5625,-2.5625,5.5625
1519294754330879,-9.75,-2.4375,4.9375
1519294754345885,-10.5,-2.1875,5.1875
1519294754367923,-8.75,-1.8125,3.5
1519294754383205,-5.5625,-0.1875,1.5
1519294754405019,-1.5,0.875,0.1875
1519294754427277,0.375,0.8125,-1
1519294754443354,0.25,0.4375,-1.625
1519294754465798,0.8125,0.5,-2.25
1519294754487883,3,0.875,-3.0625
1519294754502928,2.6875,0.8125,-3.1875
1519294754525202,2.375,0.3125,-3.5625
1519294754547261,3.75,0,-4.375
1519294754570339,5.8125,0.0625,-4.75
1519294754592701,6.5,0.8125,-4.75
1519294754622507,8.125,0.625,-4.3125
1519294754645831,8.625,0.5,-3.125
1519294754668226,7.875,0.125,-2.125
1519294754683112,5.5,-0.1875,-0.875
1519294754704978,2.5625,-0.375,-0.25
1519294754728038,-0.8125,0.0625,0.4375
1519294754743172,-4.125,0.375,0.5625
1519294754765140,-4.6875,0.0625,0.8125
1519294754787549,-4.25,0.3125,1.1875
1519294754802801,-2.625,0.3125,0.875
1519294754825831,-1.75,0.25,1.0625
1519294754855145,-1.8125,-0.0625,0.875
1519294754870161,-1,-0.625,0.4375
1519294754908328,-0.75,-0.4375,0.5
1519294754923350,-0.25,-0.0625,0.25
1519294754945620,0.5,-0.25,0.4375
1519294754975858,-0.5,-0.125,0.3125
1519294754990991,-0.1875,-0.0625,0.25
1519294755035253,-0.625,0.0625,0.0625
1519294755050476,-0.5,0.3125,-0.1875
1519294755065957,-0.4375,-0.125,-0.0625
1519294755087928,-0.0625,0,-0.0625
1519294755118264,-0.875,0,-0.125
1519294755133050,-0.125,0.0625,-0.25
1519294755155110,1.1875,0,-0.25
1519294755170150,0.6875,-0.3125,-0.1875
1519294755185187,0.4375,-0.25,-0.3125
1519294755207257,1.125,-0.25,-0.4375
1519294755230307,0.875,0,-0.3125
1519294755245352,0.5,0,-0.25
1519294755267406,1.25,-0.1875,-0.1875
1519294755290566,1.1875,-0.1875,-0.0625
1519294755305704,0.75,0,-0.125
1519294755327566,-0.5,-0.125,0.1875
1519294755349899,-0.6875,-0.0625,0.25
1519294755364924,-0.5,0.0625,0.1875
1519294755395004,-0.5625,0,0.0625
1519294755418065,0.1875,0,0.125
1519294755433131,-0.0625,0,0.1875
1519294755470201,0.375,-0.0625,-0.1875
1519294755485241,0.8125,-0.0625,-0.375
1519294755508335,1.4375,-0.3125,-0.375
1519294755530361,2,-0.1875,-0.5625
1519294755545430,1.0625,-0.25,-0.375
1519294755567486,1.75,-0.75,-0.5625
1519294755590799,2,-0.375,-0.1875
1519294755605786,0.375,0.0625,-0.0625
1519294755627845,0.25,-0.0625,-0.1875
1519294755650268,0.9375,-0.25,-0.125
1519294755665197,0.4375,0.0625,0
1519294755688008,-0.3125,0.0625,-0.125
1519294755711150,-0.0625,0.25,-0.25
1519294755725172,-0.25,0.125,-0.125
1519294755748342,-0.75,0.5,0
1519294755770292,-0.875,0.3125,0
1519294755785331,-0.125,0,-0.1875
1519294755808393,-0.5,0,0
1519294755830448,-0.3125,0.125,0
1519294755844816,0.25,0.0625,0
1519294755868224,0.625,-0.125,-0.25
1519294755890372,0.5,0.125,-0.0625
1519294755905415,0.3125,0.125,-0.0625
1519294755927247,0.875,-0.375,-0.125
1519294755957582,1.25,-0.25,0
1519294755972625,0.75,-0.125,-0.125
1519294755995688,0.5,0,-0.25
1519294756009730,0.3125,-0.0625,-0.25
1519294756032782,0.5625,0.0625,-0.25
1519294756047822,0.25,0,-0.25
1519294756069881,-0.1875,-0.0625,-0.125
1519294756092219,0.0625,-0.125,-0.125
1519294756108344,0.4375,0.1875,-0.1875
1519294756130544,-0.5625,0.0625,0
1519294756152921,-0.4375,0.0625,-0.25
1519294756167712,0.625,0.0625,-0.25
1519294756190863,0.625,0,-0.3125
1519294756212921,-0.0625,-0.0625,-0.25
1519294756234991,0.5,-0.375,-0.25
1519294756258010,1.375,-0.375,-0.1875
1519294756295233,0.9375,0,0.0625
1519294756332690,0.375,-0.25,0.0625
1519294756348485,0.25,0,0.0625
1519294756363414,-0.25,0.375,-0.125
1519294756385729,-0.5625,0.375,-0.1875
1519294756400516,-1,0.1875,-0.125
1519294756422571,-0.375,0.125,0
1519294756444630,0,0.125,0
1519294756459669,-0.5625,0,0
1519294756482731,-0.6875,0.0625,-0.125
1519294756512814,-0.3125,0.125,-0.1875
1519294756527857,0.3125,0.1875,-0.1875
1519294756549910,0.625,0.1875,-0.0625
1519294756565025,0.5625,0,-0.1875
1519294756580268,0.4375,-0.1875,-0.0625
1519294756603353,0.3125,-0.0625,-0.0625
1519294756625393,0.6875,0,-0.125
1519294756640190,0.75,0,-0.1875
1519294756663321,0.125,0,-0.125
1519294756684835,-0.3125,0.1875,-0.125
1519294756707652,-0.5,0.1875,-0.0625
1519294756729958,-0.5625,0.125,0
1519294756745754,-0.125,0.125,0.0625
1519294756760249,-0.375,0.25,0
1519294756790587,-0.875,0.1875,-0.0625
1519294756812841,-0.8125,0.25,-0.1875
1519294756827621,0.1875,0.1875,-0.1875
1519294756842659,0.1875,-0.125,-0.125
1519294756872979,-0.625,0.0625,0
1519294756888013,0.375,-0.3125,-0.1875
1519294756917859,0.875,-0.4375,0
1519294756933155,0.125,-0.1875,0.1875
1519294756948193,0.1875,0.125,0.25
1519294756963234,-0.375,-0.0625,0.1875
1519294756985278,-0.3125,-0.0625,0
1519294757008368,-0.5,0.25,0
1519294757030467,-0.875,0.375,-0.1875
1519294757060550,-0.9375,0.25,-0.125
1519294757090741,-1,0.1875,0.1875
1519294757127726,-0.375,-0.125,0.0625
1519294757142766,-0.5,0.125,0
1519294757164828,-0.3125,-0.0625,-0.125
1519294757187929,-0.0625,-0.125,0
1519294757203160,0.1875,-0.0625,0.0625
1519294757224985,0.4375,0,-0.1875
1519294757248049,0.4375,-0.125,-0.0625
1519294757263086,0.25,0,-0.0625
1519294757285146,0.3125,-0.125,-0.0625
1519294757308329,0.625,-0.0625,-0.125
1519294757323346,0.125,0,0.0625
1519294757353371,-0.4375,-0.0625,0
1519294757375389,-0.25,0,-0.0625
1519294757405960,-0.625,0.0625,0.1875
1519294757427780,-0.125,0.125,0
1519294757442819,-0.625,0,0.25
1519294757464927,-0.6875,-0.0625,-0.0625
1519294757487990,0.4375,-0.0625,-0.0625
1519294757503303,0,0.0625,0
1519294757525273,-1.0625,-0.0625,-0.0625
1519294757548341,0.125,-0.375,-0.1875
1519294757563293,0.9375,-0.4375,-0.0625
1519294757585718,0.5625,-0.25,0
1519294757607449,0.375,0.125,0.1875
1519294757622485,0.25,-0.125,0.0625
1519294757652568,-0.0625,-0.125,0.3125
1519294757674624,-0.4375,0,0.125
1519294757690841,-1,0.1875,-0.0625
1519294757705711,-1,0.25,-0.1875
1519294757727768,-0.6875,0.0625,0.125
1519294757742939,-1,0.1875,0.1875
1519294757765001,-0.3125,0,0.1875
1519294757787060,-0.875,-0.0625,0.3125
1519294757803103,-1,0.0625,0.0625
1519294757825159,-0.1875,-0.0625,-0.1875
1519294757848404,0.0625,0.0625,-0.3125
1519294757892585,0.625,0.0625,-0.125
1519294757930007,0.5,-0.1875,-0.1875
1519294757944787,0.3125,-0.1875,0.125
1519294757982890,0.5625,-0.0625,-0.1875
1519294758004946,0.375,0,0
1519294758043047,-0.625,0.1875,-0.0625
1519294758065105,-0.6875,0.25,0.125
1519294758102207,-0.4375,0.0625,0.25
1519294758132284,-0.5625,0,0
1519294758177404,0.4375,-0.1875,-0.0625
1519294758200758,-0.8125,0,-0.125
1519294758252715,0.625,-0.25,0.0625
1519294758305951,0.25,-0.25,0.0625
1519294758342990,-0.5625,0.0625,-0.25
1519294758365013,-0.3125,0.25,-0.1875
1519294758402771,-0.125,0,0
